Potential applied (V),Time (s),WE(1).Current (A),WE(1).Potential (V),Scan,Index,Q+,Q-,Current range
-0.202484130859375,6.14946798447409,-1.029052734375E-08,-0.202178955078125,1,1,3.37013900279999E-08,-2.40040168166161E-07,100 nA
-0.204925537109375,6.17388198441245,-1.12091064453125E-08,-0.20465087890625,1,2,3.37013900279999E-08,-2.40040168166161E-07,100 nA
-0.207366943359375,6.19829598435081,-1.22467041015625E-08,-0.20703125,1,3,3.37013900279999E-08,-2.40040168166161E-07,100 nA
-0.209808349609375,6.22270998428917,-1.2939453125E-08,-0.20953369140625,1,4,3.37013900279999E-08,-2.40040168166161E-07,100 nA
-0.212249755859375,6.24712398422753,-1.34307861328125E-08,-0.211944580078125,1,5,3.37013900279999E-08,-2.40040168166161E-07,100 nA
-0.214691162109375,6.27153798416589,-1.4019775390625E-08,-0.214385986328125,1,6,3.37013900279999E-08,-2.40040168166161E-07,100 nA
-0.217132568359375,6.29595198410425,-1.485595703125E-08,-0.216796875,1,7,3.37013900279999E-08,-2.40040168166161E-07,100 nA
-0.219573974609375,6.32036598404261,-1.534423828125E-08,-0.219207763671875,1,8,3.37013900279999E-08,-2.40040168166161E-07,100 nA
-0.222015380859375,6.34477998398097,-1.58416748046875E-08,-0.221710205078125,1,9,3.37013900279999E-08,-2.40040168166161E-07,100 nA
-0.224456787109375,6.36919398391933,-1.62353515625E-08,-0.224090576171875,1,10,3.37013900279999E-08,-2.40040168166161E-07,100 nA
-0.226898193359375,6.39360798385769,-1.68701171875E-08,-0.22662353515625,1,11,3.37013900279999E-08,-2.40040168166161E-07,100 nA
-0.229339599609375,6.41802198379605,-1.73309326171875E-08,-0.22906494140625,1,12,3.37013900279999E-08,-2.40040168166161E-07,100 nA
-0.231781005859375,6.44243598373441,-1.796875E-08,-0.231475830078125,1,13,3.37013900279999E-08,-2.40040168166161E-07,100 nA
-0.234222412109375,6.46684998367277,-1.84814453125E-08,-0.233917236328125,1,14,3.37013900279999E-08,-2.40040168166161E-07,100 nA
-0.236663818359375,6.49126398361113,-1.8841552734375E-08,-0.23638916015625,1,15,3.37013900279999E-08,-2.40040168166161E-07,100 nA
-0.239105224609375,6.51567798354949,-1.964111328125E-08,-0.23876953125,1,16,3.37013900279999E-08,-2.40040168166161E-07,100 nA
-0.241546630859375,6.54009198348786,-2.0001220703125E-08,-0.24127197265625,1,17,3.37013900279999E-08,-2.40040168166161E-07,100 nA
-0.243988037109375,6.56450598342622,-2.0465087890625E-08,-0.24365234375,1,18,3.37013900279999E-08,-2.40040168166161E-07,100 nA
-0.246429443359375,6.58891998336458,-2.098388671875E-08,-0.246063232421875,1,19,3.37013900279999E-08,-2.40040168166161E-07,100 nA
-0.248870849609375,6.61333398330294,-2.14813232421875E-08,-0.248565673828125,1,20,3.37013900279999E-08,-2.40040168166161E-07,100 nA
-0.251312255859375,6.6377479832413,-2.191162109375E-08,-0.2509765625,1,21,3.37013900279999E-08,-2.40040168166161E-07,100 nA
-0.253753662109375,6.66216198317966,-2.2576904296875E-08,-0.25341796875,1,22,3.37013900279999E-08,-2.40040168166161E-07,100 nA
-0.256195068359375,6.68657598311802,-2.2955322265625E-08,-0.255828857421875,1,23,3.37013900279999E-08,-2.40040168166161E-07,100 nA
-0.258636474609375,6.71098998305638,-2.35931396484375E-08,-0.25830078125,1,24,3.37013900279999E-08,-2.40040168166161E-07,100 nA
-0.261077880859375,6.73540398299474,-2.42645263671875E-08,-0.26068115234375,1,25,3.37013900279999E-08,-2.40040168166161E-07,100 nA
-0.263519287109375,6.7598179829331,-2.46826171875E-08,-0.263214111328125,1,26,3.37013900279999E-08,-2.40040168166161E-07,100 nA
-0.265960693359375,6.78423198287146,-2.53326416015625E-08,-0.26556396484375,1,27,3.37013900279999E-08,-2.40040168166161E-07,100 nA
-0.268402099609375,6.80864598280982,-2.59765625E-08,-0.26806640625,1,28,3.37013900279999E-08,-2.40040168166161E-07,100 nA
-0.270843505859375,6.83305998274818,-2.666015625E-08,-0.2705078125,1,29,3.37013900279999E-08,-2.40040168166161E-07,100 nA
-0.273284912109375,6.85747398268654,-2.72918701171875E-08,-0.27294921875,1,30,3.37013900279999E-08,-2.40040168166161E-07,100 nA
-0.275726318359375,6.8818879826249,-2.794189453125E-08,-0.275360107421875,1,31,3.37013900279999E-08,-2.40040168166161E-07,100 nA
-0.278167724609375,6.90630198256326,-2.85736083984375E-08,-0.27783203125,1,32,3.37013900279999E-08,-2.40040168166161E-07,100 nA
-0.280609130859375,6.93071598250162,-2.9339599609375E-08,-0.280242919921875,1,33,3.37013900279999E-08,-2.40040168166161E-07,100 nA
-0.283050537109375,6.95512998243998,-3.0096435546875E-08,-0.282684326171875,1,34,3.37013900279999E-08,-2.40040168166161E-07,100 nA
-0.285491943359375,6.97954398237835,-3.08929443359375E-08,-0.28515625,1,35,3.37013900279999E-08,-2.40040168166161E-07,100 nA
-0.287933349609375,7.00395798231671,-3.16314697265625E-08,-0.28759765625,1,36,3.37013900279999E-08,-2.40040168166161E-07,100 nA
-0.290374755859375,7.02837198225507,-3.2293701171875E-08,-0.28997802734375,1,37,3.37013900279999E-08,-2.40040168166161E-07,100 nA
-0.292816162109375,7.05278598219343,-3.29833984375E-08,-0.292388916015625,1,38,3.37013900279999E-08,-2.40040168166161E-07,100 nA
-0.295257568359375,7.07719998213179,-3.3465576171875E-08,-0.29486083984375,1,39,3.37013900279999E-08,-2.40040168166161E-07,100 nA
-0.297698974609375,7.10161398207015,-3.4051513671875E-08,-0.297332763671875,1,40,3.37013900279999E-08,-2.40040168166161E-07,100 nA
-0.300140380859375,7.12602798200851,-3.4576416015625E-08,-0.29974365234375,1,41,3.37013900279999E-08,-2.40040168166161E-07,100 nA
-0.302581787109375,7.15044198194687,-3.525390625E-08,-0.30218505859375,1,42,3.37013900279999E-08,-2.40040168166161E-07,100 nA
-0.305023193359375,7.17485598188523,-3.5687255859375E-08,-0.3046875,1,43,3.37013900279999E-08,-2.40040168166161E-07,100 nA
-0.307464599609375,7.19926998182359,-3.59222412109375E-08,-0.30706787109375,1,44,3.37013900279999E-08,-2.40040168166161E-07,100 nA
-0.309906005859375,7.22368398176195,-3.63677978515625E-08,-0.309539794921875,1,45,3.37013900279999E-08,-2.40040168166161E-07,100 nA
-0.312347412109375,7.24809798170031,-3.6688232421875E-08,-0.31195068359375,1,46,3.37013900279999E-08,-2.40040168166161E-07,100 nA
-0.314788818359375,7.27251198163867,-3.68316650390625E-08,-0.31439208984375,1,47,3.37013900279999E-08,-2.40040168166161E-07,100 nA
-0.317230224609375,7.29692598157703,-3.7188720703125E-08,-0.31689453125,1,48,3.37013900279999E-08,-2.40040168166161E-07,100 nA
-0.319671630859375,7.32133998151539,-3.72039794921875E-08,-0.319305419921875,1,49,3.37013900279999E-08,-2.40040168166161E-07,100 nA
-0.322113037109375,7.34575398145375,-3.74725341796875E-08,-0.32171630859375,1,50,3.37013900279999E-08,-2.40040168166161E-07,100 nA
-0.324554443359375,7.37016798139211,-3.748779296875E-08,-0.324127197265625,1,51,3.37013900279999E-08,-2.40040168166161E-07,100 nA
-0.326995849609375,7.39458198133048,-3.78143310546875E-08,-0.32659912109375,1,52,3.37013900279999E-08,-2.40040168166161E-07,100 nA
-0.329437255859375,7.41899598126884,-3.80615234375E-08,-0.329071044921875,1,53,3.37013900279999E-08,-2.40040168166161E-07,100 nA
-0.331878662109375,7.4434099812072,-3.83026123046875E-08,-0.33148193359375,1,54,3.37013900279999E-08,-2.40040168166161E-07,100 nA
-0.334320068359375,7.46782398114556,-3.85162353515625E-08,-0.33392333984375,1,55,3.37013900279999E-08,-2.40040168166161E-07,100 nA
-0.336761474609375,7.49223798108392,-3.897705078125E-08,-0.336395263671875,1,56,3.37013900279999E-08,-2.40040168166161E-07,100 nA
-0.339202880859375,7.51665198102228,-3.91357421875E-08,-0.33880615234375,1,57,3.37013900279999E-08,-2.40040168166161E-07,100 nA
-0.341644287109375,7.54106598096064,-3.9434814453125E-08,-0.34124755859375,1,58,3.37013900279999E-08,-2.40040168166161E-07,100 nA
-0.344085693359375,7.565479980899,-3.97918701171875E-08,-0.34368896484375,1,59,3.37013900279999E-08,-2.40040168166161E-07,100 nA
-0.346527099609375,7.58989398083736,-3.99749755859375E-08,-0.34613037109375,1,60,3.37013900279999E-08,-2.40040168166161E-07,100 nA
-0.348968505859375,7.61430798077572,-4.0264892578125E-08,-0.34857177734375,1,61,3.37013900279999E-08,-2.40040168166161E-07,100 nA
-0.351409912109375,7.63872198071408,-4.04510498046875E-08,-0.351043701171875,1,62,3.37013900279999E-08,-2.40040168166161E-07,100 nA
-0.353851318359375,7.66313598065244,-4.09881591796875E-08,-0.353485107421875,1,63,3.37013900279999E-08,-2.40040168166161E-07,100 nA
-0.356292724609375,7.6875499805908,-4.11895751953125E-08,-0.355865478515625,1,64,3.37013900279999E-08,-2.40040168166161E-07,100 nA
-0.358734130859375,7.71196398052916,-4.1595458984375E-08,-0.35833740234375,1,65,3.37013900279999E-08,-2.40040168166161E-07,100 nA
-0.361175537109375,7.73637798046752,-4.19158935546875E-08,-0.36077880859375,1,66,3.37013900279999E-08,-2.40040168166161E-07,100 nA
-0.363616943359375,7.76079198040588,-4.22088623046875E-08,-0.36322021484375,1,67,3.37013900279999E-08,-2.40040168166161E-07,100 nA
-0.366058349609375,7.78520598034424,-4.26849365234375E-08,-0.36566162109375,1,68,3.37013900279999E-08,-2.40040168166161E-07,100 nA
-0.368499755859375,7.80961998028261,-4.3023681640625E-08,-0.368072509765625,1,69,3.37013900279999E-08,-2.40040168166161E-07,100 nA
-0.370941162109375,7.83403398022097,-4.34814453125E-08,-0.370513916015625,1,70,3.37013900279999E-08,-2.40040168166161E-07,100 nA
-0.373382568359375,7.85844798015933,-4.3798828125E-08,-0.3729248046875,1,71,3.37013900279999E-08,-2.40040168166161E-07,100 nA
-0.375823974609375,7.88286198009769,-4.4207763671875E-08,-0.375396728515625,1,72,3.37013900279999E-08,-2.40040168166161E-07,100 nA
-0.378265380859375,7.90727598003605,-4.44000244140625E-08,-0.3778076171875,1,73,3.37013900279999E-08,-2.40040168166161E-07,100 nA
-0.380706787109375,7.93168997997441,-4.4879150390625E-08,-0.38031005859375,1,74,3.37013900279999E-08,-2.40040168166161E-07,100 nA
-0.383148193359375,7.95610397991277,-4.5245361328125E-08,-0.382720947265625,1,75,3.37013900279999E-08,-2.40040168166161E-07,100 nA
-0.385589599609375,7.98051797985113,-4.5648193359375E-08,-0.38519287109375,1,76,3.37013900279999E-08,-2.40040168166161E-07,100 nA
-0.388031005859375,8.00493197978949,-4.62860107421875E-08,-0.3875732421875,1,77,3.37013900279999E-08,-2.40040168166161E-07,100 nA
-0.390472412109375,8.02934597972785,-4.6429443359375E-08,-0.390045166015625,1,78,3.37013900279999E-08,-2.40040168166161E-07,100 nA
-0.392913818359375,8.05375997966621,-4.6795654296875E-08,-0.392486572265625,1,79,3.37013900279999E-08,-2.40040168166161E-07,100 nA
-0.395355224609375,8.07817397960457,-4.71649169921875E-08,-0.3948974609375,1,80,3.37013900279999E-08,-2.40040168166161E-07,100 nA
-0.397796630859375,8.10258797954293,-4.7637939453125E-08,-0.39727783203125,1,81,3.37013900279999E-08,-2.40040168166161E-07,100 nA
-0.400238037109375,8.12700197948129,-4.8065185546875E-08,-0.399810791015625,1,82,3.37013900279999E-08,-2.40040168166161E-07,100 nA
-0.402679443359375,8.15141597941965,-4.8492431640625E-08,-0.402252197265625,1,83,3.37013900279999E-08,-2.40040168166161E-07,100 nA
-0.405120849609375,8.17582997935801,-4.8858642578125E-08,-0.4046630859375,1,84,3.37013900279999E-08,-2.40040168166161E-07,100 nA
-0.407562255859375,8.20024397929637,-4.931640625E-08,-0.407135009765625,1,85,3.37013900279999E-08,-2.40040168166161E-07,100 nA
-0.410003662109375,8.22465797923473,-4.9713134765625E-08,-0.409515380859375,1,86,3.37013900279999E-08,-2.40040168166161E-07,100 nA
-0.412445068359375,8.2490719791731,-5.0384521484375E-08,-0.4119873046875,1,87,3.37013900279999E-08,-2.40040168166161E-07,100 nA
-0.414886474609375,8.27348597911146,-5.0689697265625E-08,-0.414459228515625,1,88,3.37013900279999E-08,-2.40040168166161E-07,100 nA
-0.417327880859375,8.29789997904982,-5.120849609375E-08,-0.416900634765625,1,89,3.37013900279999E-08,-2.40040168166161E-07,100 nA
-0.419769287109375,8.32231397898818,-5.157470703125E-08,-0.4193115234375,1,90,3.37013900279999E-08,-2.40040168166161E-07,100 nA
-0.422210693359375,8.34672797892654,-5.194091796875E-08,-0.4217529296875,1,91,3.37013900279999E-08,-2.40040168166161E-07,100 nA
-0.424652099609375,8.3711419788649,-5.2490234375E-08,-0.4241943359375,1,92,3.37013900279999E-08,-2.40040168166161E-07,100 nA
-0.427093505859375,8.39555597880326,-5.31005859375E-08,-0.4266357421875,1,93,3.37013900279999E-08,-2.40040168166161E-07,100 nA
-0.429534912109375,8.41996997874162,-5.35888671875E-08,-0.429046630859375,1,94,3.37013900279999E-08,-2.40040168166161E-07,100 nA
-0.431976318359375,8.44438397867998,-5.377197265625E-08,-0.4315185546875,1,95,3.37013900279999E-08,-2.40040168166161E-07,100 nA
-0.434417724609375,8.46879797861834,-5.450439453125E-08,-0.4339599609375,1,96,3.37013900279999E-08,-2.40040168166161E-07,100 nA
-0.436859130859375,8.4932119785567,-5.4931640625E-08,-0.4364013671875,1,97,3.37013900279999E-08,-2.40040168166161E-07,100 nA
-0.439300537109375,8.51762597849506,-5.5633544921875E-08,-0.438873291015625,1,98,3.37013900279999E-08,-2.40040168166161E-07,100 nA
-0.441741943359375,8.54203997843342,-5.5938720703125E-08,-0.44134521484375,1,99,3.37013900279999E-08,-2.40040168166161E-07,100 nA
-0.444183349609375,8.56645397837178,-5.657958984375E-08,-0.443695068359375,1,100,3.37013900279999E-08,-2.40040168166161E-07,100 nA
-0.446624755859375,8.59086797831014,-5.7159423828125E-08,-0.446197509765625,1,101,3.37013900279999E-08,-2.40040168166161E-07,100 nA
-0.449066162109375,8.6152819782485,-5.7830810546875E-08,-0.4486083984375,1,102,3.37013900279999E-08,-2.40040168166161E-07,100 nA
-0.451507568359375,8.63969597818686,-5.804443359375E-08,-0.4510498046875,1,103,3.37013900279999E-08,-2.40040168166161E-07,100 nA
-0.453948974609375,8.66410997812523,-5.87158203125E-08,-0.4534912109375,1,104,3.37013900279999E-08,-2.40040168166161E-07,100 nA
-0.456390380859375,8.68852397806359,-5.9173583984375E-08,-0.45587158203125,1,105,3.37013900279999E-08,-2.40040168166161E-07,100 nA
-0.458831787109375,8.71293797800195,-5.99365234375E-08,-0.458343505859375,1,106,3.37013900279999E-08,-2.40040168166161E-07,100 nA
-0.461273193359375,8.73735197794031,-6.0516357421875E-08,-0.460784912109375,1,107,3.37013900279999E-08,-2.40040168166161E-07,100 nA
-0.463714599609375,8.76176597787867,-6.1004638671875E-08,-0.463287353515625,1,108,3.37013900279999E-08,-2.40040168166161E-07,100 nA
-0.466156005859375,8.78617997781703,-6.1737060546875E-08,-0.465606689453125,1,109,3.37013900279999E-08,-2.40040168166161E-07,100 nA
-0.468597412109375,8.81059397775539,-6.219482421875E-08,-0.468048095703125,1,110,3.37013900279999E-08,-2.40040168166161E-07,100 nA
-0.471038818359375,8.83500797769375,-6.28662109375E-08,-0.470550537109375,1,111,3.37013900279999E-08,-2.40040168166161E-07,100 nA
-0.473480224609375,8.85942197763211,-6.3507080078125E-08,-0.4730224609375,1,112,3.37013900279999E-08,-2.40040168166161E-07,100 nA
-0.475921630859375,8.88383597757047,-6.427001953125E-08,-0.475341796875,1,113,3.37013900279999E-08,-2.40040168166161E-07,100 nA
-0.478363037109375,8.90824997750883,-6.475830078125E-08,-0.477874755859375,1,114,3.37013900279999E-08,-2.40040168166161E-07,100 nA
-0.480804443359375,8.93266397744719,-6.5521240234375E-08,-0.48028564453125,1,115,3.37013900279999E-08,-2.40040168166161E-07,100 nA
-0.483245849609375,8.95707797738555,-6.6009521484375E-08,-0.482696533203125,1,116,3.37013900279999E-08,-2.40040168166161E-07,100 nA
-0.485687255859375,8.98149197732391,-6.671142578125E-08,-0.485137939453125,1,117,3.37013900279999E-08,-2.40040168166161E-07,100 nA
-0.488128662109375,9.00590597726227,-6.7474365234375E-08,-0.48760986328125,1,118,3.37013900279999E-08,-2.40040168166161E-07,100 nA
-0.490570068359375,9.03031997720063,-6.79931640625E-08,-0.490081787109375,1,119,3.37013900279999E-08,-2.40040168166161E-07,100 nA
-0.493011474609375,9.05473397713899,-6.8695068359375E-08,-0.492462158203125,1,120,3.37013900279999E-08,-2.40040168166161E-07,100 nA
-0.495452880859375,9.07914797707735,-6.964111328125E-08,-0.49493408203125,1,121,3.37013900279999E-08,-2.40040168166161E-07,100 nA
-0.497894287109375,9.10356197701572,-7.0220947265625E-08,-0.497344970703125,1,122,3.37013900279999E-08,-2.40040168166161E-07,100 nA
-0.500335693359375,9.12797597695408,-7.0892333984375E-08,-0.49981689453125,1,123,3.37013900279999E-08,-2.40040168166161E-07,100 nA
-0.502777099609375,9.15238997689244,-7.16552734375E-08,-0.502227783203125,1,124,3.37013900279999E-08,-2.40040168166161E-07,100 nA
-0.505218505859375,9.1768039768308,-7.2265625E-08,-0.50469970703125,1,125,3.37013900279999E-08,-2.40040168166161E-07,100 nA
-0.507659912109375,9.20121797676916,-7.32421875E-08,-0.507110595703125,1,126,3.37013900279999E-08,-2.40040168166161E-07,100 nA
-0.510101318359375,9.22563197670752,-7.3822021484375E-08,-0.509613037109375,1,127,3.37013900279999E-08,-2.40040168166161E-07,100 nA
-0.512542724609375,9.25004597664588,-7.4615478515625E-08,-0.511962890625,1,128,3.37013900279999E-08,-2.40040168166161E-07,100 nA
-0.514984130859375,9.27445997658424,-7.5347900390625E-08,-0.514373779296875,1,129,3.37013900279999E-08,-2.40040168166161E-07,100 nA
-0.517425537109375,9.2988739765226,-7.611083984375E-08,-0.51690673828125,1,130,3.37013900279999E-08,-2.40040168166161E-07,100 nA
-0.519866943359375,9.32328797646096,-7.6873779296875E-08,-0.519256591796875,1,131,3.37013900279999E-08,-2.40040168166161E-07,100 nA
-0.522308349609375,9.34770197639932,-7.7545166015625E-08,-0.521728515625,1,132,3.37013900279999E-08,-2.40040168166161E-07,100 nA
-0.524749755859375,9.37211597633768,-7.8399658203125E-08,-0.52410888671875,1,133,3.37013900279999E-08,-2.40040168166161E-07,100 nA
-0.527191162109375,9.39652997627604,-7.904052734375E-08,-0.52655029296875,1,134,3.37013900279999E-08,-2.40040168166161E-07,100 nA
-0.529632568359375,9.4209439762144,-8.013916015625E-08,-0.529022216796875,1,135,3.37013900279999E-08,-2.40040168166161E-07,100 nA
-0.532073974609375,9.44535797615276,-8.0810546875E-08,-0.531463623046875,1,136,3.37013900279999E-08,-2.40040168166161E-07,100 nA
-0.534515380859375,9.46977197609112,-8.1756591796875E-08,-0.533905029296875,1,137,3.37013900279999E-08,-2.40040168166161E-07,100 nA
-0.536956787109375,9.49418597602948,-8.2489013671875E-08,-0.536346435546875,1,138,3.37013900279999E-08,-2.40040168166161E-07,100 nA
-0.539398193359375,9.51859997596785,-8.343505859375E-08,-0.53875732421875,1,139,3.37013900279999E-08,-2.40040168166161E-07,100 nA
-0.541839599609375,9.54301397590621,-8.43505859375E-08,-0.541168212890625,1,140,3.37013900279999E-08,-2.40040168166161E-07,100 nA
-0.544281005859375,9.56742797584457,-8.5235595703125E-08,-0.543701171875,1,141,3.37013900279999E-08,-2.40040168166161E-07,100 nA
-0.546722412109375,9.59184197578293,-8.63037109375E-08,-0.546142578125,1,142,3.37013900279999E-08,-2.40040168166161E-07,100 nA
-0.549163818359375,9.61625597572129,-8.7310791015625E-08,-0.548492431640625,1,143,3.37013900279999E-08,-2.40040168166161E-07,100 nA
-0.551605224609375,9.64066997565965,-8.807373046875E-08,-0.551025390625,1,144,3.37013900279999E-08,-2.40040168166161E-07,100 nA
-0.549163818359375,9.66508397559801,-8.28857421875E-08,-0.548553466796875,1,145,3.37013900279999E-08,-2.40040168166161E-07,100 nA
-0.546722412109375,9.68949797553637,-7.9742431640625E-08,-0.546142578125,1,146,3.37013900279999E-08,-2.40040168166161E-07,100 nA
-0.544281005859375,9.71391197547473,-7.7392578125E-08,-0.543731689453125,1,147,3.37013900279999E-08,-2.40040168166161E-07,100 nA
-0.541839599609375,9.73832597541309,-7.5042724609375E-08,-0.541229248046875,1,148,3.37013900279999E-08,-2.40040168166161E-07,100 nA
-0.539398193359375,9.76273997535145,-7.318115234375E-08,-0.53875732421875,1,149,3.37013900279999E-08,-2.40040168166161E-07,100 nA
-0.536956787109375,9.78715397528981,-7.1319580078125E-08,-0.53643798828125,1,150,3.37013900279999E-08,-2.40040168166161E-07,100 nA
-0.534515380859375,9.81156797522817,-6.939697265625E-08,-0.533935546875,1,151,3.37013900279999E-08,-2.40040168166161E-07,100 nA
-0.532073974609375,9.83598197516653,-6.7901611328125E-08,-0.531524658203125,1,152,3.37013900279999E-08,-2.40040168166161E-07,100 nA
-0.529632568359375,9.86039597510489,-6.610107421875E-08,-0.529052734375,1,153,3.37013900279999E-08,-2.40040168166161E-07,100 nA
-0.527191162109375,9.88480997504325,-6.4727783203125E-08,-0.526702880859375,1,154,3.37013900279999E-08,-2.40040168166161E-07,100 nA
-0.524749755859375,9.90922397498161,-6.3446044921875E-08,-0.524169921875,1,155,3.37013900279999E-08,-2.40040168166161E-07,100 nA
-0.522308349609375,9.93363797491998,-6.1981201171875E-08,-0.521697998046875,1,156,3.37013900279999E-08,-2.40040168166161E-07,100 nA
-0.519866943359375,9.95805197485834,-6.060791015625E-08,-0.519256591796875,1,157,3.37013900279999E-08,-2.40040168166161E-07,100 nA
-0.517425537109375,9.9824659747967,-5.9295654296875E-08,-0.51690673828125,1,158,3.37013900279999E-08,-2.40040168166161E-07,100 nA
-0.514984130859375,10.0068799747351,-5.804443359375E-08,-0.514434814453125,1,159,3.37013900279999E-08,-2.40040168166161E-07,100 nA
-0.512542724609375,10.0312939746734,-5.67626953125E-08,-0.511962890625,1,160,3.37013900279999E-08,-2.40040168166161E-07,100 nA
-0.510101318359375,10.0557079746118,-5.55419921875E-08,-0.50958251953125,1,161,3.37013900279999E-08,-2.40040168166161E-07,100 nA
-0.507659912109375,10.0801219745501,-5.438232421875E-08,-0.507171630859375,1,162,3.37013900279999E-08,-2.40040168166161E-07,100 nA
-0.505218505859375,10.1045359744885,-5.3253173828125E-08,-0.504669189453125,1,163,3.37013900279999E-08,-2.40040168166161E-07,100 nA
-0.502777099609375,10.1289499744269,-5.218505859375E-08,-0.502288818359375,1,164,3.37013900279999E-08,-2.40040168166161E-07,100 nA
-0.500335693359375,10.1533639743652,-5.126953125E-08,-0.499786376953125,1,165,3.37013900279999E-08,-2.40040168166161E-07,100 nA
-0.497894287109375,10.1777779743036,-4.9957275390625E-08,-0.497467041015625,1,166,3.37013900279999E-08,-2.40040168166161E-07,100 nA
-0.495452880859375,10.2021919742419,-4.9102783203125E-08,-0.4949951171875,1,167,3.37013900279999E-08,-2.40040168166161E-07,100 nA
-0.493011474609375,10.2266059741803,-4.791259765625E-08,-0.49249267578125,1,168,3.37013900279999E-08,-2.40040168166161E-07,100 nA
-0.490570068359375,10.2510199741187,-4.67437744140625E-08,-0.490081787109375,1,169,3.37013900279999E-08,-2.40040168166161E-07,100 nA
-0.488128662109375,10.275433974057,-4.58770751953125E-08,-0.487579345703125,1,170,3.37013900279999E-08,-2.40040168166161E-07,100 nA
-0.485687255859375,10.2998479739954,-4.49859619140625E-08,-0.485107421875,1,171,3.37013900279999E-08,-2.40040168166161E-07,100 nA
-0.483245849609375,10.3242619739337,-4.39483642578125E-08,-0.48272705078125,1,172,3.37013900279999E-08,-2.40040168166161E-07,100 nA
-0.480804443359375,10.3486759738721,-4.3011474609375E-08,-0.4803466796875,1,173,3.37013900279999E-08,-2.40040168166161E-07,100 nA
-0.478363037109375,10.3730899738105,-4.23065185546875E-08,-0.477813720703125,1,174,3.37013900279999E-08,-2.40040168166161E-07,100 nA
-0.475921630859375,10.3975039737488,-4.13360595703125E-08,-0.4754638671875,1,175,3.37013900279999E-08,-2.40040168166161E-07,100 nA
-0.473480224609375,10.4219179736872,-4.03167724609375E-08,-0.473052978515625,1,176,3.37013900279999E-08,-2.40040168166161E-07,100 nA
-0.471038818359375,10.4463319736255,-3.97064208984375E-08,-0.470550537109375,1,177,3.37013900279999E-08,-2.40040168166161E-07,100 nA
-0.468597412109375,10.4707459735639,-3.8665771484375E-08,-0.4681396484375,1,178,3.37013900279999E-08,-2.40040168166161E-07,100 nA
-0.466156005859375,10.4951599735023,-3.7908935546875E-08,-0.465606689453125,1,179,3.37013900279999E-08,-2.40040168166161E-07,100 nA
-0.463714599609375,10.5195739734406,-3.7200927734375E-08,-0.4632568359375,1,180,3.37013900279999E-08,-2.40040168166161E-07,100 nA
-0.461273193359375,10.543987973379,-3.6016845703125E-08,-0.460723876953125,1,181,3.37013900279999E-08,-2.40040168166161E-07,100 nA
-0.458831787109375,10.5684019733174,-3.555908203125E-08,-0.458343505859375,1,182,3.37013900279999E-08,-2.40040168166161E-07,100 nA
-0.456390380859375,10.5928159732557,-3.46649169921875E-08,-0.4559326171875,1,183,3.37013900279999E-08,-2.40040168166161E-07,100 nA
-0.453948974609375,10.6172299731941,-3.40606689453125E-08,-0.45355224609375,1,184,3.37013900279999E-08,-2.40040168166161E-07,100 nA
-0.451507568359375,10.6416439731324,-3.3294677734375E-08,-0.4510498046875,1,185,3.37013900279999E-08,-2.40040168166161E-07,100 nA
-0.449066162109375,10.6660579730708,-3.2452392578125E-08,-0.448577880859375,1,186,3.37013900279999E-08,-2.40040168166161E-07,100 nA
-0.446624755859375,10.6904719730092,-3.16925048828125E-08,-0.4461669921875,1,187,3.37013900279999E-08,-2.40040168166161E-07,100 nA
-0.444183349609375,10.7148859729475,-3.0926513671875E-08,-0.443695068359375,1,188,3.37013900279999E-08,-2.40040168166161E-07,100 nA
-0.441741943359375,10.7392999728859,-3.03314208984375E-08,-0.441253662109375,1,189,3.37013900279999E-08,-2.40040168166161E-07,100 nA
-0.439300537109375,10.7637139728242,-2.96234130859375E-08,-0.4388427734375,1,190,3.37013900279999E-08,-2.40040168166161E-07,100 nA
-0.436859130859375,10.7881279727626,-2.896728515625E-08,-0.436370849609375,1,191,3.37013900279999E-08,-2.40040168166161E-07,100 nA
-0.434417724609375,10.812541972701,-2.8228759765625E-08,-0.43402099609375,1,192,3.37013900279999E-08,-2.40040168166161E-07,100 nA
-0.431976318359375,10.8369559726393,-2.75848388671875E-08,-0.4315185546875,1,193,3.37013900279999E-08,-2.40040168166161E-07,100 nA
-0.429534912109375,10.8613699725777,-2.681884765625E-08,-0.42913818359375,1,194,3.37013900279999E-08,-2.40040168166161E-07,100 nA
-0.427093505859375,10.885783972516,-2.62908935546875E-08,-0.426666259765625,1,195,3.37013900279999E-08,-2.40040168166161E-07,100 nA
-0.424652099609375,10.9101979724544,-2.5665283203125E-08,-0.42425537109375,1,196,3.37013900279999E-08,-2.40040168166161E-07,100 nA
-0.422210693359375,10.9346119723928,-2.52197265625E-08,-0.4217529296875,1,197,3.37013900279999E-08,-2.40040168166161E-07,100 nA
-0.419769287109375,10.9590259723311,-2.44415283203125E-08,-0.41937255859375,1,198,3.37013900279999E-08,-2.40040168166161E-07,100 nA
-0.417327880859375,10.9834399722695,-2.39044189453125E-08,-0.416900634765625,1,199,3.37013900279999E-08,-2.40040168166161E-07,100 nA
-0.414886474609375,11.0078539722078,-2.30712890625E-08,-0.414459228515625,1,200,3.37013900279999E-08,-2.40040168166161E-07,100 nA
-0.412445068359375,11.0322679721462,-2.2540283203125E-08,-0.41204833984375,1,201,3.37013900279999E-08,-2.40040168166161E-07,100 nA
-0.410003662109375,11.0566819720846,-2.20611572265625E-08,-0.4095458984375,1,202,3.37013900279999E-08,-2.40040168166161E-07,100 nA
-0.407562255859375,11.0810959720229,-2.1527099609375E-08,-0.407135009765625,1,203,3.37013900279999E-08,-2.40040168166161E-07,100 nA
-0.405120849609375,11.1055099719613,-2.0751953125E-08,-0.404693603515625,1,204,3.37013900279999E-08,-2.40040168166161E-07,100 nA
-0.402679443359375,11.1299239718996,-2.030029296875E-08,-0.4022216796875,1,205,3.37013900279999E-08,-2.40040168166161E-07,100 nA
-0.400238037109375,11.154337971838,-1.98028564453125E-08,-0.399810791015625,1,206,3.37013900279999E-08,-2.40040168166161E-07,100 nA
-0.397796630859375,11.1787519717764,-1.9207763671875E-08,-0.39739990234375,1,207,3.37013900279999E-08,-2.40040168166161E-07,100 nA
-0.395355224609375,11.2031659717147,-1.876220703125E-08,-0.39495849609375,1,208,3.37013900279999E-08,-2.40040168166161E-07,100 nA
-0.392913818359375,11.2275799716531,-1.8170166015625E-08,-0.39251708984375,1,209,3.37013900279999E-08,-2.40040168166161E-07,100 nA
-0.390472412109375,11.2519939715914,-1.77276611328125E-08,-0.390106201171875,1,210,3.37013900279999E-08,-2.40040168166161E-07,100 nA
-0.388031005859375,11.2764079715298,-1.7083740234375E-08,-0.38763427734375,1,211,3.37013900279999E-08,-2.40040168166161E-07,100 nA
-0.385589599609375,11.3008219714682,-1.658935546875E-08,-0.385223388671875,1,212,3.37013900279999E-08,-2.40040168166161E-07,100 nA
-0.383148193359375,11.3252359714065,-1.5997314453125E-08,-0.382781982421875,1,213,3.37013900279999E-08,-2.40040168166161E-07,100 nA
-0.380706787109375,11.3496499713449,-1.5679931640625E-08,-0.38031005859375,1,214,3.37013900279999E-08,-2.40040168166161E-07,100 nA
-0.378265380859375,11.3740639712832,-1.5093994140625E-08,-0.37786865234375,1,215,3.37013900279999E-08,-2.40040168166161E-07,100 nA
-0.375823974609375,11.3984779712216,-1.4508056640625E-08,-0.37548828125,1,216,3.37013900279999E-08,-2.40040168166161E-07,100 nA
-0.373382568359375,11.42289197116,-1.40472412109375E-08,-0.37298583984375,1,217,3.37013900279999E-08,-2.40040168166161E-07,100 nA
-0.370941162109375,11.4473059710983,-1.37115478515625E-08,-0.370574951171875,1,218,3.37013900279999E-08,-2.40040168166161E-07,100 nA
-0.368499755859375,11.4717199710367,-1.3031005859375E-08,-0.368133544921875,1,219,3.37013900279999E-08,-2.40040168166161E-07,100 nA
-0.366058349609375,11.4961339709751,-1.25274658203125E-08,-0.365692138671875,1,220,3.37013900279999E-08,-2.40040168166161E-07,100 nA
-0.363616943359375,11.5205479709134,-1.22222900390625E-08,-0.363189697265625,1,221,3.37013900279999E-08,-2.40040168166161E-07,100 nA
-0.361175537109375,11.5449619708518,-1.165771484375E-08,-0.360748291015625,1,222,3.37013900279999E-08,-2.40040168166161E-07,100 nA
-0.358734130859375,11.5693759707901,-1.1004638671875E-08,-0.358367919921875,1,223,3.37013900279999E-08,-2.40040168166161E-07,100 nA
-0.356292724609375,11.5937899707285,-1.0784912109375E-08,-0.355926513671875,1,224,3.37013900279999E-08,-2.40040168166161E-07,100 nA
-0.353851318359375,11.6182039706669,-1.01226806640625E-08,-0.353485107421875,1,225,3.37013900279999E-08,-2.40040168166161E-07,100 nA
-0.351409912109375,11.6426179706052,-9.9456787109375E-09,-0.350982666015625,1,226,3.37013900279999E-08,-2.40040168166161E-07,100 nA
-0.348968505859375,11.6670319705436,-9.36279296875E-09,-0.34857177734375,1,227,3.37013900279999E-08,-2.40040168166161E-07,100 nA
-0.346527099609375,11.6914459704819,-8.7493896484375E-09,-0.34613037109375,1,228,3.37013900279999E-08,-2.40040168166161E-07,100 nA
-0.344085693359375,11.7158599704203,-8.4564208984375E-09,-0.34375,1,229,3.37013900279999E-08,-2.40040168166161E-07,100 nA
-0.341644287109375,11.7402739703587,-7.97119140625E-09,-0.341278076171875,1,230,3.37013900279999E-08,-2.40040168166161E-07,100 nA
-0.339202880859375,11.764687970297,-7.3486328125E-09,-0.3388671875,1,231,3.37013900279999E-08,-2.40040168166161E-07,100 nA
-0.336761474609375,11.7891019702354,-6.854248046875E-09,-0.33636474609375,1,232,3.37013900279999E-08,-2.40040168166161E-07,100 nA
-0.334320068359375,11.8135159701737,-6.5185546875E-09,-0.333984375,1,233,3.37013900279999E-08,-2.40040168166161E-07,100 nA
-0.331878662109375,11.8379299701121,-5.9814453125E-09,-0.331512451171875,1,234,3.37013900279999E-08,-2.40040168166161E-07,100 nA
-0.329437255859375,11.8623439700505,-5.206298828125E-09,-0.329010009765625,1,235,3.37013900279999E-08,-2.40040168166161E-07,100 nA
-0.326995849609375,11.8867579699888,-4.5989990234375E-09,-0.32666015625,1,236,3.37013900279999E-08,-2.40040168166161E-07,100 nA
-0.324554443359375,11.9111719699272,-4.1412353515625E-09,-0.324127197265625,1,237,3.37013900279999E-08,-2.40040168166161E-07,100 nA
-0.322113037109375,11.9355859698655,-3.5003662109375E-09,-0.32177734375,1,238,3.37013900279999E-08,-2.40040168166161E-07,100 nA
-0.319671630859375,11.9599999698039,-3.06396484375E-09,-0.3193359375,1,239,3.37013900279999E-08,-2.40040168166161E-07,100 nA
-0.317230224609375,11.9844139697423,-2.1820068359375E-09,-0.316864013671875,1,240,3.37013900279999E-08,-2.40040168166161E-07,100 nA
-0.314788818359375,12.0088279696806,-1.74957275390625E-09,-0.3145751953125,1,241,3.37013900279999E-08,-2.40040168166161E-07,100 nA
-0.312347412109375,12.033241969619,-1.0076904296875E-09,-0.31201171875,1,242,3.37013900279999E-08,-2.40040168166161E-07,100 nA
-0.309906005859375,12.0576559695573,-3.27453613281251E-10,-0.3095703125,1,243,3.37013900279999E-08,-2.40040168166161E-07,100 nA
-0.307464599609375,12.0820699694957,3.23486328125E-10,-0.30712890625,1,244,3.37013900279999E-08,-2.40040168166161E-07,100 nA
-0.305023193359375,12.1064839694341,1.08856201171875E-09,-0.30474853515625,1,245,3.37013900279999E-08,-2.40040168166161E-07,100 nA
-0.302581787109375,12.1308979693724,1.8310546875E-09,-0.30224609375,1,246,3.37013900279999E-08,-2.40040168166161E-07,100 nA
-0.300140380859375,12.1553119693108,2.5909423828125E-09,-0.299774169921875,1,247,3.37013900279999E-08,-2.40040168166161E-07,100 nA
-0.297698974609375,12.1797259692491,3.0487060546875E-09,-0.297332763671875,1,248,3.37013900279999E-08,-2.40040168166161E-07,100 nA
-0.295257568359375,12.2041399691875,3.9093017578125E-09,-0.294891357421875,1,249,3.37013900279999E-08,-2.40040168166161E-07,100 nA
-0.292816162109375,12.2285539691259,4.5623779296875E-09,-0.29248046875,1,250,3.37013900279999E-08,-2.40040168166161E-07,100 nA
-0.290374755859375,12.2529679690642,4.833984375E-09,-0.290130615234375,1,251,3.37013900279999E-08,-2.40040168166161E-07,100 nA
-0.287933349609375,12.2773819690026,5.4351806640625E-09,-0.287628173828125,1,252,3.37013900279999E-08,-2.40040168166161E-07,100 nA
-0.285491943359375,12.301795968941,5.401611328125E-09,-0.285186767578125,1,253,3.37013900279999E-08,-2.40040168166161E-07,100 nA
-0.283050537109375,12.3262099688793,6.036376953125E-09,-0.28271484375,1,254,3.37013900279999E-08,-2.40040168166161E-07,100 nA
-0.280609130859375,12.3506239688177,6.195068359375E-09,-0.2802734375,1,255,3.37013900279999E-08,-2.40040168166161E-07,100 nA
-0.278167724609375,12.375037968756,6.585693359375E-09,-0.27783203125,1,256,3.37013900279999E-08,-2.40040168166161E-07,100 nA
-0.275726318359375,12.3994519686944,6.6497802734375E-09,-0.27545166015625,1,257,3.37013900279999E-08,-2.40040168166161E-07,100 nA
-0.273284912109375,12.4238659686328,6.9000244140625E-09,-0.272979736328125,1,258,3.37013900279999E-08,-2.40040168166161E-07,100 nA
-0.270843505859375,12.4482799685711,7.0159912109375E-09,-0.270538330078125,1,259,3.37013900279999E-08,-2.40040168166161E-07,100 nA
-0.268402099609375,12.4726939685095,7.2021484375E-09,-0.26800537109375,1,260,3.37013900279999E-08,-2.40040168166161E-07,100 nA
-0.265960693359375,12.4971079684478,7.232666015625E-09,-0.26568603515625,1,261,3.37013900279999E-08,-2.40040168166161E-07,100 nA
-0.263519287109375,12.5215219683862,7.3577880859375E-09,-0.263214111328125,1,262,3.37013900279999E-08,-2.40040168166161E-07,100 nA
-0.261077880859375,12.5459359683246,7.6385498046875E-09,-0.2607421875,1,263,3.37013900279999E-08,-2.40040168166161E-07,100 nA
-0.258636474609375,12.5703499682629,7.7392578125E-09,-0.25830078125,1,264,3.37013900279999E-08,-2.40040168166161E-07,100 nA
-0.256195068359375,12.5947639682013,8.0963134765625E-09,-0.25592041015625,1,265,3.37013900279999E-08,-2.40040168166161E-07,100 nA
-0.253753662109375,12.6191779681396,8.33740234375E-09,-0.253448486328125,1,266,3.37013900279999E-08,-2.40040168166161E-07,100 nA
-0.251312255859375,12.643591968078,8.2672119140625E-09,-0.2509765625,1,267,3.37013900279999E-08,-2.40040168166161E-07,100 nA
-0.248870849609375,12.6680059680164,8.36181640625E-09,-0.248626708984375,1,268,3.37013900279999E-08,-2.40040168166161E-07,100 nA
-0.246429443359375,12.6924199679547,8.8287353515625E-09,-0.24615478515625,1,269,3.37013900279999E-08,-2.40040168166161E-07,100 nA
-0.243988037109375,12.7168339678931,8.8165283203125E-09,-0.243682861328125,1,270,3.37013900279999E-08,-2.40040168166161E-07,100 nA
-0.241546630859375,12.7412479678314,9.0484619140625E-09,-0.241241455078125,1,271,3.37013900279999E-08,-2.40040168166161E-07,100 nA
-0.239105224609375,12.7656619677698,9.2620849609375E-09,-0.238800048828125,1,272,3.37013900279999E-08,-2.40040168166161E-07,100 nA
-0.236663818359375,12.7900759677082,9.4970703125E-09,-0.23638916015625,1,273,3.37013900279999E-08,-2.40040168166161E-07,100 nA
-0.234222412109375,12.8144899676465,9.7808837890625E-09,-0.233978271484375,1,274,3.37013900279999E-08,-2.40040168166161E-07,100 nA
-0.231781005859375,12.8389039675849,1.002197265625E-08,-0.2315673828125,1,275,3.37013900279999E-08,-2.40040168166161E-07,100 nA
-0.229339599609375,12.8633179675232,1.02203369140625E-08,-0.229095458984375,1,276,3.37013900279999E-08,-2.40040168166161E-07,100 nA
-0.226898193359375,12.8877319674616,1.0516357421875E-08,-0.2266845703125,1,277,3.37013900279999E-08,-2.40040168166161E-07,100 nA
-0.224456787109375,12.9121459674,1.083984375E-08,-0.22418212890625,1,278,3.37013900279999E-08,-2.40040168166161E-07,100 nA
-0.222015380859375,12.9365599673383,1.0906982421875E-08,-0.221710205078125,1,279,3.37013900279999E-08,-2.40040168166161E-07,100 nA
-0.219573974609375,12.9609739672767,1.13800048828125E-08,-0.2193603515625,1,280,3.37013900279999E-08,-2.40040168166161E-07,100 nA
-0.217132568359375,12.985387967215,1.1456298828125E-08,-0.21685791015625,1,281,3.37013900279999E-08,-2.40040168166161E-07,100 nA
-0.214691162109375,13.0098019671534,1.1846923828125E-08,-0.214447021484375,1,282,3.37013900279999E-08,-2.40040168166161E-07,100 nA
-0.212249755859375,13.0342159670918,1.2188720703125E-08,-0.211944580078125,1,283,3.37013900279999E-08,-2.40040168166161E-07,100 nA
-0.209808349609375,13.0586299670301,1.239013671875E-08,-0.209564208984375,1,284,3.37013900279999E-08,-2.40040168166161E-07,100 nA
-0.207366943359375,13.0830439669685,1.2689208984375E-08,-0.20709228515625,1,285,3.37013900279999E-08,-2.40040168166161E-07,100 nA
-0.204925537109375,13.1074579669069,1.2896728515625E-08,-0.204681396484375,1,286,3.37013900279999E-08,-2.40040168166161E-07,100 nA
-0.202484130859375,13.1318719668452,1.3043212890625E-08,-0.202239990234375,1,287,3.37013900279999E-08,-2.40040168166161E-07,100 nA
-0.200042724609375,13.1562859667836,1.3372802734375E-08,-0.1998291015625,1,288,3.37013900279999E-08,-2.40040168166161E-07,100 nA
-0.197601318359375,13.1806999667219,1.3720703125E-08,-0.197357177734375,1,289,3.37013900279999E-08,-2.40040168166161E-07,100 nA
-0.195159912109375,13.2051139666603,1.40411376953125E-08,-0.19500732421875,1,290,3.37013900279999E-08,-2.40040168166161E-07,100 nA
-0.192718505859375,13.2295279665987,1.4056396484375E-08,-0.1925048828125,1,291,3.37013900279999E-08,-2.40040168166161E-07,100 nA
-0.190277099609375,13.253941966537,1.47003173828125E-08,-0.19000244140625,1,292,3.37013900279999E-08,-2.40040168166161E-07,100 nA
-0.187835693359375,13.2783559664754,1.4898681640625E-08,-0.1876220703125,1,293,3.37013900279999E-08,-2.40040168166161E-07,100 nA
-0.185394287109375,13.3027699664137,1.5191650390625E-08,-0.1851806640625,1,294,3.37013900279999E-08,-2.40040168166161E-07,100 nA
-0.182952880859375,13.3271839663521,1.5423583984375E-08,-0.182708740234375,1,295,3.37013900279999E-08,-2.40040168166161E-07,100 nA
-0.180511474609375,13.3515979662905,1.56463623046875E-08,-0.180267333984375,1,296,3.37013900279999E-08,-2.40040168166161E-07,100 nA
-0.178070068359375,13.3760119662288,1.58355712890625E-08,-0.17791748046875,1,297,3.37013900279999E-08,-2.40040168166161E-07,100 nA
-0.175628662109375,13.4004259661672,1.62506103515625E-08,-0.175384521484375,1,298,3.37013900279999E-08,-2.40040168166161E-07,100 nA
-0.173187255859375,13.4248399661055,1.64794921875E-08,-0.1729736328125,1,299,3.37013900279999E-08,-2.40040168166161E-07,100 nA
-0.170745849609375,13.4492539660439,1.688232421875E-08,-0.17047119140625,1,300,3.37013900279999E-08,-2.40040168166161E-07,100 nA
-0.168304443359375,13.4736679659823,1.69769287109375E-08,-0.1680908203125,1,301,3.37013900279999E-08,-2.40040168166161E-07,100 nA
-0.165863037109375,13.4980819659206,1.7388916015625E-08,-0.1656494140625,1,302,3.37013900279999E-08,-2.40040168166161E-07,100 nA
-0.163421630859375,13.522495965859,1.75537109375E-08,-0.1632080078125,1,303,3.37013900279999E-08,-2.40040168166161E-07,100 nA
-0.160980224609375,13.5469099657973,1.7926025390625E-08,-0.160797119140625,1,304,3.37013900279999E-08,-2.40040168166161E-07,100 nA
-0.158538818359375,13.5713239657357,1.8255615234375E-08,-0.158294677734375,1,305,3.37013900279999E-08,-2.40040168166161E-07,100 nA
-0.156097412109375,13.5957379656741,1.84661865234375E-08,-0.155914306640625,1,306,3.37013900279999E-08,-2.40040168166161E-07,100 nA
-0.153656005859375,13.6201519656124,1.8804931640625E-08,-0.153472900390625,1,307,3.37013900279999E-08,-2.40040168166161E-07,100 nA
-0.151214599609375,13.6445659655508,1.89727783203125E-08,-0.151031494140625,1,308,3.37013900279999E-08,-2.40040168166161E-07,100 nA
-0.148773193359375,13.6689799654891,1.9134521484375E-08,-0.14862060546875,1,309,3.37013900279999E-08,-2.40040168166161E-07,100 nA
-0.146331787109375,13.6933939654275,1.95465087890625E-08,-0.14617919921875,1,310,3.37013900279999E-08,-2.40040168166161E-07,100 nA
-0.143890380859375,13.7178079653659,1.94854736328125E-08,-0.143707275390625,1,311,3.37013900279999E-08,-2.40040168166161E-07,100 nA
-0.141448974609375,13.7422219653042,2.01141357421875E-08,-0.141265869140625,1,312,3.37013900279999E-08,-2.40040168166161E-07,100 nA
-0.139007568359375,13.7666359652426,2.04864501953125E-08,-0.138824462890625,1,313,3.37013900279999E-08,-2.40040168166161E-07,100 nA
-0.136566162109375,13.7910499651809,2.0751953125E-08,-0.136383056640625,1,314,3.37013900279999E-08,-2.40040168166161E-07,100 nA
-0.134124755859375,13.8154639651193,2.099609375E-08,-0.133941650390625,1,315,3.37013900279999E-08,-2.40040168166161E-07,100 nA
-0.131683349609375,13.8398779650577,2.1148681640625E-08,-0.131439208984375,1,316,3.37013900279999E-08,-2.40040168166161E-07,100 nA
-0.129241943359375,13.864291964996,2.158203125E-08,-0.129058837890625,1,317,3.37013900279999E-08,-2.40040168166161E-07,100 nA
-0.126800537109375,13.8887059649344,2.183837890625E-08,-0.126617431640625,1,318,3.37013900279999E-08,-2.40040168166161E-07,100 nA
-0.124359130859375,13.9131199648727,2.20703125E-08,-0.1241455078125,1,319,3.37013900279999E-08,-2.40040168166161E-07,100 nA
-0.121917724609375,13.9375339648111,2.24212646484375E-08,-0.12176513671875,1,320,3.37013900279999E-08,-2.40040168166161E-07,100 nA
-0.119476318359375,13.9619479647495,2.27294921875E-08,-0.11932373046875,1,321,3.37013900279999E-08,-2.40040168166161E-07,100 nA
-0.117034912109375,13.9863619646878,2.29461669921875E-08,-0.116851806640625,1,322,3.37013900279999E-08,-2.40040168166161E-07,100 nA
-0.114593505859375,14.0107759646262,2.31475830078125E-08,-0.11444091796875,1,323,3.37013900279999E-08,-2.40040168166161E-07,100 nA
-0.112152099609375,14.0351899645646,2.347412109375E-08,-0.11199951171875,1,324,3.37013900279999E-08,-2.40040168166161E-07,100 nA
-0.109710693359375,14.0596039645029,2.388916015625E-08,-0.10955810546875,1,325,3.37013900279999E-08,-2.40040168166161E-07,100 nA
-0.107269287109375,14.0840179644413,2.3992919921875E-08,-0.107086181640625,1,326,3.37013900279999E-08,-2.40040168166161E-07,100 nA
-0.104827880859375,14.1084319643796,2.4371337890625E-08,-0.10467529296875,1,327,3.37013900279999E-08,-2.40040168166161E-07,100 nA
-0.102386474609375,14.132845964318,2.45635986328125E-08,-0.10223388671875,1,328,3.37013900279999E-08,-2.40040168166161E-07,100 nA
-0.099945068359375,14.1572599642564,2.51617431640625E-08,-0.099761962890625,1,329,3.37013900279999E-08,-2.40040168166161E-07,100 nA
-0.102386474609375,14.1816739641947,2.1209716796875E-08,-0.102203369140625,1,330,3.37013900279999E-08,-2.40040168166161E-07,100 nA
-0.104827880859375,14.2060879641331,1.9122314453125E-08,-0.10467529296875,1,331,3.37013900279999E-08,-2.40040168166161E-07,100 nA
-0.107269287109375,14.2305019640714,1.75811767578125E-08,-0.107147216796875,1,332,3.37013900279999E-08,-2.40040168166161E-07,100 nA
-0.109710693359375,14.2549159640098,1.6326904296875E-08,-0.109527587890625,1,333,3.37013900279999E-08,-2.40040168166161E-07,100 nA
-0.112152099609375,14.2793299639482,1.52984619140625E-08,-0.1119384765625,1,334,3.37013900279999E-08,-2.40040168166161E-07,100 nA
-0.114593505859375,14.3037439638865,1.41998291015625E-08,-0.114410400390625,1,335,3.37013900279999E-08,-2.40040168166161E-07,100 nA
-0.117034912109375,14.3281579638249,1.326904296875E-08,-0.1168212890625,1,336,3.37013900279999E-08,-2.40040168166161E-07,100 nA
-0.119476318359375,14.3525719637632,1.219482421875E-08,-0.119232177734375,1,337,3.37013900279999E-08,-2.40040168166161E-07,100 nA
-0.121917724609375,14.3769859637016,1.14837646484375E-08,-0.1217041015625,1,338,3.37013900279999E-08,-2.40040168166161E-07,100 nA
-0.124359130859375,14.40139996364,1.0504150390625E-08,-0.124176025390625,1,339,3.37013900279999E-08,-2.40040168166161E-07,100 nA
-0.126800537109375,14.4258139635783,9.9822998046875E-09,-0.1265869140625,1,340,3.37013900279999E-08,-2.40040168166161E-07,100 nA
-0.129241943359375,14.4502279635167,9.002685546875E-09,-0.128997802734375,1,341,3.37013900279999E-08,-2.40040168166161E-07,100 nA
-0.131683349609375,14.474641963455,8.331298828125E-09,-0.131500244140625,1,342,3.37013900279999E-08,-2.40040168166161E-07,100 nA
-0.134124755859375,14.4990559633934,7.6263427734375E-09,-0.133880615234375,1,343,3.37013900279999E-08,-2.40040168166161E-07,100 nA
-0.136566162109375,14.5234699633318,6.9000244140625E-09,-0.1363525390625,1,344,3.37013900279999E-08,-2.40040168166161E-07,100 nA
-0.139007568359375,14.5478839632701,6.2347412109375E-09,-0.1387939453125,1,345,3.37013900279999E-08,-2.40040168166161E-07,100 nA
-0.141448974609375,14.5722979632085,5.6304931640625E-09,-0.14129638671875,1,346,3.37013900279999E-08,-2.40040168166161E-07,100 nA
-0.143890380859375,14.5967119631468,4.925537109375E-09,-0.143646240234375,1,347,3.37013900279999E-08,-2.40040168166161E-07,100 nA
-0.146331787109375,14.6211259630852,4.2449951171875E-09,-0.14617919921875,1,348,3.37013900279999E-08,-2.40040168166161E-07,100 nA
-0.148773193359375,14.6455399630236,3.7445068359375E-09,-0.14849853515625,1,349,3.37013900279999E-08,-2.40040168166161E-07,100 nA
-0.151214599609375,14.6699539629619,3.118896484375E-09,-0.15093994140625,1,350,3.37013900279999E-08,-2.40040168166161E-07,100 nA
-0.153656005859375,14.6943679629003,2.423095703125E-09,-0.153411865234375,1,351,3.37013900279999E-08,-2.40040168166161E-07,100 nA
-0.156097412109375,14.7187819628386,1.7315673828125E-09,-0.155853271484375,1,352,3.37013900279999E-08,-2.40040168166161E-07,100 nA
-0.158538818359375,14.743195962777,1.40167236328125E-09,-0.1583251953125,1,353,3.37013900279999E-08,-2.40040168166161E-07,100 nA
-0.160980224609375,14.7676099627154,6.5704345703125E-10,-0.1607666015625,1,354,3.37013900279999E-08,-2.40040168166161E-07,100 nA
-0.163421630859375,14.7920239626537,2.95104980468749E-10,-0.1632080078125,1,355,3.37013900279999E-08,-2.40040168166161E-07,100 nA
-0.165863037109375,14.8164379625921,-2.5604248046875E-10,-0.1656494140625,1,356,3.37013900279999E-08,-2.40040168166161E-07,100 nA
-0.168304443359375,14.8408519625305,-7.13195800781249E-10,-0.1680908203125,1,357,3.37013900279999E-08,-2.40040168166161E-07,100 nA
-0.170745849609375,14.8652659624688,-1.2884521484375E-09,-0.17041015625,1,358,3.37013900279999E-08,-2.40040168166161E-07,100 nA
-0.173187255859375,14.8896799624072,-1.7864990234375E-09,-0.1729736328125,1,359,3.37013900279999E-08,-2.40040168166161E-07,100 nA
-0.175628662109375,14.9140939623455,-2.4249267578125E-09,-0.17535400390625,1,360,3.37013900279999E-08,-2.40040168166161E-07,100 nA
-0.178070068359375,14.9385079622839,-2.8228759765625E-09,-0.1778564453125,1,361,3.37013900279999E-08,-2.40040168166161E-07,100 nA
-0.180511474609375,14.9629219622223,-3.33251953125E-09,-0.18023681640625,1,362,3.37013900279999E-08,-2.40040168166161E-07,100 nA
-0.182952880859375,14.9873359621606,-3.80859375E-09,-0.1827392578125,1,363,3.37013900279999E-08,-2.40040168166161E-07,100 nA
-0.185394287109375,15.011749962099,-4.461669921875E-09,-0.18511962890625,1,364,3.37013900279999E-08,-2.40040168166161E-07,100 nA
-0.187835693359375,15.0361639620373,-4.9407958984375E-09,-0.187591552734375,1,365,3.37013900279999E-08,-2.40040168166161E-07,100 nA
-0.190277099609375,15.0605779619757,-5.413818359375E-09,-0.189971923828125,1,366,3.37013900279999E-08,-2.40040168166161E-07,100 nA
-0.192718505859375,15.0849919619141,-5.99365234375E-09,-0.19244384765625,1,367,3.37013900279999E-08,-2.40040168166161E-07,100 nA
-0.195159912109375,15.1094059618524,-6.341552734375E-09,-0.19488525390625,1,368,3.37013900279999E-08,-2.40040168166161E-07,100 nA
-0.197601318359375,15.1338199617908,-6.7169189453125E-09,-0.197296142578125,1,369,3.37013900279999E-08,-2.40040168166161E-07,100 nA
-0.200042724609375,15.1582339617291,-7.1441650390625E-09,-0.19976806640625,1,370,3.37013900279999E-08,-2.40040168166161E-07,100 nA
-0.202484130859375,15.1826479616675,-7.7545166015625E-09,-0.202178955078125,2,371,3.99465933442116E-08,-2.07055658102036E-07,100 nA
-0.204925537109375,15.2070619616059,-8.221435546875E-09,-0.20465087890625,2,372,3.99465933442116E-08,-2.07055658102036E-07,100 nA
-0.207366943359375,15.2314759615442,-8.6944580078125E-09,-0.207061767578125,2,373,3.99465933442116E-08,-2.07055658102036E-07,100 nA
-0.209808349609375,15.2558899614826,-9.0972900390625E-09,-0.209503173828125,2,374,3.99465933442116E-08,-2.07055658102036E-07,100 nA
-0.212249755859375,15.2803039614209,-9.5306396484375E-09,-0.21197509765625,2,375,3.99465933442116E-08,-2.07055658102036E-07,100 nA
-0.214691162109375,15.3047179613593,-9.759521484375E-09,-0.214385986328125,2,376,3.99465933442116E-08,-2.07055658102036E-07,100 nA
-0.217132568359375,15.3291319612977,-1.0223388671875E-08,-0.216827392578125,2,377,3.99465933442116E-08,-2.07055658102036E-07,100 nA
-0.219573974609375,15.353545961236,-1.06781005859375E-08,-0.219268798828125,2,378,3.99465933442116E-08,-2.07055658102036E-07,100 nA
-0.222015380859375,15.3779599611744,-1.15264892578125E-08,-0.2216796875,2,379,3.99465933442116E-08,-2.07055658102036E-07,100 nA
-0.224456787109375,15.4023739611127,-1.1676025390625E-08,-0.224151611328125,2,380,3.99465933442116E-08,-2.07055658102036E-07,100 nA
-0.226898193359375,15.4267879610511,-1.202392578125E-08,-0.226593017578125,2,381,3.99465933442116E-08,-2.07055658102036E-07,100 nA
-0.229339599609375,15.4512019609895,-1.253662109375E-08,-0.22906494140625,2,382,3.99465933442116E-08,-2.07055658102036E-07,100 nA
-0.231781005859375,15.4756159609278,-1.312255859375E-08,-0.23150634765625,2,383,3.99465933442116E-08,-2.07055658102036E-07,100 nA
-0.234222412109375,15.5000299608662,-1.35650634765625E-08,-0.23388671875,2,384,3.99465933442116E-08,-2.07055658102036E-07,100 nA
-0.236663818359375,15.5244439608045,-1.39678955078125E-08,-0.236328125,2,385,3.99465933442116E-08,-2.07055658102036E-07,100 nA
-0.239105224609375,15.5488579607429,-1.4288330078125E-08,-0.23883056640625,2,386,3.99465933442116E-08,-2.07055658102036E-07,100 nA
-0.241546630859375,15.5732719606813,-1.48834228515625E-08,-0.24127197265625,2,387,3.99465933442116E-08,-2.07055658102036E-07,100 nA
-0.243988037109375,15.5976859606196,-1.53106689453125E-08,-0.24365234375,2,388,3.99465933442116E-08,-2.07055658102036E-07,100 nA
-0.246429443359375,15.622099960558,-1.57318115234375E-08,-0.246124267578125,2,389,3.99465933442116E-08,-2.07055658102036E-07,100 nA
-0.248870849609375,15.6465139604964,-1.6143798828125E-08,-0.24853515625,2,390,3.99465933442116E-08,-2.07055658102036E-07,100 nA
-0.251312255859375,15.6709279604347,-1.654052734375E-08,-0.2509765625,2,391,3.99465933442116E-08,-2.07055658102036E-07,100 nA
-0.253753662109375,15.6953419603731,-1.69677734375E-08,-0.253387451171875,2,392,3.99465933442116E-08,-2.07055658102036E-07,100 nA
-0.256195068359375,15.7197559603114,-1.75262451171875E-08,-0.255859375,2,393,3.99465933442116E-08,-2.07055658102036E-07,100 nA
-0.258636474609375,15.7441699602498,-1.80450439453125E-08,-0.25823974609375,2,394,3.99465933442116E-08,-2.07055658102036E-07,100 nA
-0.261077880859375,15.7685839601882,-1.8603515625E-08,-0.2607421875,2,395,3.99465933442116E-08,-2.07055658102036E-07,100 nA
-0.263519287109375,15.7929979601265,-1.90765380859375E-08,-0.26318359375,2,396,3.99465933442116E-08,-2.07055658102036E-07,100 nA
-0.265960693359375,15.8174119600649,-1.98577880859375E-08,-0.265625,2,397,3.99465933442116E-08,-2.07055658102036E-07,100 nA
-0.268402099609375,15.8418259600032,-2.04376220703125E-08,-0.268035888671875,2,398,3.99465933442116E-08,-2.07055658102036E-07,100 nA
-0.270843505859375,15.8662399599416,-2.10968017578125E-08,-0.2705078125,2,399,3.99465933442116E-08,-2.07055658102036E-07,100 nA
-0.273284912109375,15.89065395988,-2.17437744140625E-08,-0.27294921875,2,400,3.99465933442116E-08,-2.07055658102036E-07,100 nA
-0.275726318359375,15.9150679598183,-2.237548828125E-08,-0.275360107421875,2,401,3.99465933442116E-08,-2.07055658102036E-07,100 nA
-0.278167724609375,15.9394819597567,-2.310791015625E-08,-0.27783203125,2,402,3.99465933442116E-08,-2.07055658102036E-07,100 nA
-0.280609130859375,15.963895959695,-2.36083984375E-08,-0.2802734375,2,403,3.99465933442116E-08,-2.07055658102036E-07,100 nA
-0.283050537109375,15.9883099596334,-2.449951171875E-08,-0.282684326171875,2,404,3.99465933442116E-08,-2.07055658102036E-07,100 nA
-0.285491943359375,16.0127239595718,-2.518310546875E-08,-0.28509521484375,2,405,3.99465933442116E-08,-2.07055658102036E-07,100 nA
-0.287933349609375,16.0371379595101,-2.59674072265625E-08,-0.287567138671875,2,406,3.99465933442116E-08,-2.07055658102036E-07,100 nA
-0.290374755859375,16.0615519594485,-2.6556396484375E-08,-0.2900390625,2,407,3.99465933442116E-08,-2.07055658102036E-07,100 nA
-0.292816162109375,16.0859659593868,-2.73345947265625E-08,-0.292449951171875,2,408,3.99465933442116E-08,-2.07055658102036E-07,100 nA
-0.295257568359375,16.1103799593252,-2.8009033203125E-08,-0.29486083984375,2,409,3.99465933442116E-08,-2.07055658102036E-07,100 nA
-0.297698974609375,16.1347939592636,-2.86529541015625E-08,-0.29730224609375,2,410,3.99465933442116E-08,-2.07055658102036E-07,100 nA
-0.300140380859375,16.1592079592019,-2.8924560546875E-08,-0.299774169921875,2,411,3.99465933442116E-08,-2.07055658102036E-07,100 nA
-0.302581787109375,16.1836219591403,-2.95196533203125E-08,-0.302215576171875,2,412,3.99465933442116E-08,-2.07055658102036E-07,100 nA
-0.305023193359375,16.2080359590786,-2.96600341796875E-08,-0.304656982421875,2,413,3.99465933442116E-08,-2.07055658102036E-07,100 nA
-0.307464599609375,16.232449959017,-3.011474609375E-08,-0.30712890625,2,414,3.99465933442116E-08,-2.07055658102036E-07,100 nA
-0.309906005859375,16.2568639589554,-3.0511474609375E-08,-0.3095703125,2,415,3.99465933442116E-08,-2.07055658102036E-07,100 nA
-0.312347412109375,16.2812779588937,-3.06365966796875E-08,-0.311920166015625,2,416,3.99465933442116E-08,-2.07055658102036E-07,100 nA
-0.314788818359375,16.3056919588321,-3.08502197265625E-08,-0.314422607421875,2,417,3.99465933442116E-08,-2.07055658102036E-07,100 nA
-0.317230224609375,16.3301059587704,-3.11309814453125E-08,-0.31689453125,2,418,3.99465933442116E-08,-2.07055658102036E-07,100 nA
-0.319671630859375,16.3545199587088,-3.14208984375E-08,-0.319305419921875,2,419,3.99465933442116E-08,-2.07055658102036E-07,100 nA
-0.322113037109375,16.3789339586472,-3.14178466796875E-08,-0.321746826171875,2,420,3.99465933442116E-08,-2.07055658102036E-07,100 nA
-0.324554443359375,16.4033479585855,-3.1683349609375E-08,-0.32415771484375,2,421,3.99465933442116E-08,-2.07055658102036E-07,100 nA
-0.326995849609375,16.4277619585239,-3.19732666015625E-08,-0.32659912109375,2,422,3.99465933442116E-08,-2.07055658102036E-07,100 nA
-0.329437255859375,16.4521759584622,-3.23394775390625E-08,-0.329010009765625,2,423,3.99465933442116E-08,-2.07055658102036E-07,100 nA
-0.331878662109375,16.4765899584006,-3.2171630859375E-08,-0.33154296875,2,424,3.99465933442116E-08,-2.07055658102036E-07,100 nA
-0.334320068359375,16.501003958339,-3.270263671875E-08,-0.33392333984375,2,425,3.99465933442116E-08,-2.07055658102036E-07,100 nA
-0.336761474609375,16.5254179582773,-3.2794189453125E-08,-0.336395263671875,2,426,3.99465933442116E-08,-2.07055658102036E-07,100 nA
-0.339202880859375,16.5498319582157,-3.28369140625E-08,-0.338836669921875,2,427,3.99465933442116E-08,-2.07055658102036E-07,100 nA
-0.341644287109375,16.5742459581541,-3.32122802734375E-08,-0.34130859375,2,428,3.99465933442116E-08,-2.07055658102036E-07,100 nA
-0.344085693359375,16.5986599580924,-3.345947265625E-08,-0.343719482421875,2,429,3.99465933442116E-08,-2.07055658102036E-07,100 nA
-0.346527099609375,16.6230739580308,-3.37371826171875E-08,-0.34613037109375,2,430,3.99465933442116E-08,-2.07055658102036E-07,100 nA
-0.348968505859375,16.6474879579691,-3.3978271484375E-08,-0.3486328125,2,431,3.99465933442116E-08,-2.07055658102036E-07,100 nA
-0.351409912109375,16.6719019579075,-3.43048095703125E-08,-0.350982666015625,2,432,3.99465933442116E-08,-2.07055658102036E-07,100 nA
-0.353851318359375,16.6963159578459,-3.47412109375E-08,-0.353485107421875,2,433,3.99465933442116E-08,-2.07055658102036E-07,100 nA
-0.356292724609375,16.7207299577842,-3.5101318359375E-08,-0.355865478515625,2,434,3.99465933442116E-08,-2.07055658102036E-07,100 nA
-0.358734130859375,16.7451439577226,-3.54461669921875E-08,-0.35833740234375,2,435,3.99465933442116E-08,-2.07055658102036E-07,100 nA
-0.361175537109375,16.7695579576609,-3.56689453125E-08,-0.36077880859375,2,436,3.99465933442116E-08,-2.07055658102036E-07,100 nA
-0.363616943359375,16.7939719575993,-3.6114501953125E-08,-0.363189697265625,2,437,3.99465933442116E-08,-2.07055658102036E-07,100 nA
-0.366058349609375,16.8183859575377,-3.6468505859375E-08,-0.365692138671875,2,438,3.99465933442116E-08,-2.07055658102036E-07,100 nA
-0.368499755859375,16.842799957476,-3.6627197265625E-08,-0.368133544921875,2,439,3.99465933442116E-08,-2.07055658102036E-07,100 nA
-0.370941162109375,16.8672139574144,-3.7255859375E-08,-0.37054443359375,2,440,3.99465933442116E-08,-2.07055658102036E-07,100 nA
-0.373382568359375,16.8916279573527,-3.74725341796875E-08,-0.372955322265625,2,441,3.99465933442116E-08,-2.07055658102036E-07,100 nA
-0.375823974609375,16.9160419572911,-3.77960205078125E-08,-0.375396728515625,2,442,3.99465933442116E-08,-2.07055658102036E-07,100 nA
-0.378265380859375,16.9404559572295,-3.81500244140625E-08,-0.37786865234375,2,443,3.99465933442116E-08,-2.07055658102036E-07,100 nA
-0.380706787109375,16.9648699571678,-3.87298583984375E-08,-0.38031005859375,2,444,3.99465933442116E-08,-2.07055658102036E-07,100 nA
-0.383148193359375,16.9892839571062,-3.87542724609375E-08,-0.38275146484375,2,445,3.99465933442116E-08,-2.07055658102036E-07,100 nA
-0.385589599609375,17.0136979570445,-3.9385986328125E-08,-0.385162353515625,2,446,3.99465933442116E-08,-2.07055658102036E-07,100 nA
-0.388031005859375,17.0381119569829,-3.97064208984375E-08,-0.38763427734375,2,447,3.99465933442116E-08,-2.07055658102036E-07,100 nA
-0.390472412109375,17.0625259569213,-3.99993896484375E-08,-0.39007568359375,2,448,3.99465933442116E-08,-2.07055658102036E-07,100 nA
-0.392913818359375,17.0869399568596,-4.053955078125E-08,-0.392425537109375,2,449,3.99465933442116E-08,-2.07055658102036E-07,100 nA
-0.395355224609375,17.111353956798,-4.09332275390625E-08,-0.3948974609375,2,450,3.99465933442116E-08,-2.07055658102036E-07,100 nA
-0.397796630859375,17.1357679567363,-4.13848876953125E-08,-0.3973388671875,2,451,3.99465933442116E-08,-2.07055658102036E-07,100 nA
-0.400238037109375,17.1601819566747,-4.17572021484375E-08,-0.399810791015625,2,452,3.99465933442116E-08,-2.07055658102036E-07,100 nA
-0.402679443359375,17.1845959566131,-4.22119140625E-08,-0.4022216796875,2,453,3.99465933442116E-08,-2.07055658102036E-07,100 nA
-0.405120849609375,17.2090099565514,-4.24163818359375E-08,-0.4046630859375,2,454,3.99465933442116E-08,-2.07055658102036E-07,100 nA
-0.407562255859375,17.2334239564898,-4.287109375E-08,-0.4071044921875,2,455,3.99465933442116E-08,-2.07055658102036E-07,100 nA
-0.410003662109375,17.2578379564281,-4.3438720703125E-08,-0.4095458984375,2,456,3.99465933442116E-08,-2.07055658102036E-07,100 nA
-0.412445068359375,17.2822519563665,-4.38079833984375E-08,-0.412017822265625,2,457,3.99465933442116E-08,-2.07055658102036E-07,100 nA
-0.414886474609375,17.3066659563049,-4.41925048828125E-08,-0.41448974609375,2,458,3.99465933442116E-08,-2.07055658102036E-07,100 nA
-0.417327880859375,17.3310799562432,-4.47845458984375E-08,-0.416900634765625,2,459,3.99465933442116E-08,-2.07055658102036E-07,100 nA
-0.419769287109375,17.3554939561816,-4.49462890625E-08,-0.419342041015625,2,460,3.99465933442116E-08,-2.07055658102036E-07,100 nA
-0.422210693359375,17.37990795612,-4.5361328125E-08,-0.4217529296875,2,461,3.99465933442116E-08,-2.07055658102036E-07,100 nA
-0.424652099609375,17.4043219560583,-4.60479736328125E-08,-0.424163818359375,2,462,3.99465933442116E-08,-2.07055658102036E-07,100 nA
-0.427093505859375,17.4287359559967,-4.6478271484375E-08,-0.4266357421875,2,463,3.99465933442116E-08,-2.07055658102036E-07,100 nA
-0.429534912109375,17.453149955935,-4.6868896484375E-08,-0.4290771484375,2,464,3.99465933442116E-08,-2.07055658102036E-07,100 nA
-0.431976318359375,17.4775639558734,-4.73297119140625E-08,-0.431488037109375,2,465,3.99465933442116E-08,-2.07055658102036E-07,100 nA
-0.434417724609375,17.5019779558118,-4.779052734375E-08,-0.4339599609375,2,466,3.99465933442116E-08,-2.07055658102036E-07,100 nA
-0.436859130859375,17.5263919557501,-4.827880859375E-08,-0.436431884765625,2,467,3.99465933442116E-08,-2.07055658102036E-07,100 nA
-0.439300537109375,17.5508059556885,-4.8797607421875E-08,-0.43890380859375,2,468,3.99465933442116E-08,-2.07055658102036E-07,100 nA
-0.441741943359375,17.5752199556268,-4.931640625E-08,-0.441314697265625,2,469,3.99465933442116E-08,-2.07055658102036E-07,100 nA
-0.444183349609375,17.5996339555652,-4.9835205078125E-08,-0.4437255859375,2,470,3.99465933442116E-08,-2.07055658102036E-07,100 nA
-0.446624755859375,17.6240479555036,-5.0140380859375E-08,-0.4461669921875,2,471,3.99465933442116E-08,-2.07055658102036E-07,100 nA
-0.449066162109375,17.6484619554419,-5.0872802734375E-08,-0.4486083984375,2,472,3.99465933442116E-08,-2.07055658102036E-07,100 nA
-0.451507568359375,17.6728759553803,-5.133056640625E-08,-0.4510498046875,2,473,3.99465933442116E-08,-2.07055658102036E-07,100 nA
-0.453948974609375,17.6972899553186,-5.18798828125E-08,-0.4534912109375,2,474,3.99465933442116E-08,-2.07055658102036E-07,100 nA
-0.456390380859375,17.721703955257,-5.2490234375E-08,-0.455963134765625,2,475,3.99465933442116E-08,-2.07055658102036E-07,100 nA
-0.458831787109375,17.7461179551954,-5.2886962890625E-08,-0.458343505859375,2,476,3.99465933442116E-08,-2.07055658102036E-07,100 nA
-0.461273193359375,17.7705319551337,-5.352783203125E-08,-0.4608154296875,2,477,3.99465933442116E-08,-2.07055658102036E-07,100 nA
-0.463714599609375,17.7949459550721,-5.3985595703125E-08,-0.4632568359375,2,478,3.99465933442116E-08,-2.07055658102036E-07,100 nA
-0.466156005859375,17.8193599550104,-5.45654296875E-08,-0.465667724609375,2,479,3.99465933442116E-08,-2.07055658102036E-07,100 nA
-0.468597412109375,17.8437739549488,-5.5023193359375E-08,-0.468170166015625,2,480,3.99465933442116E-08,-2.07055658102036E-07,100 nA
-0.471038818359375,17.8681879548872,-5.572509765625E-08,-0.4705810546875,2,481,3.99465933442116E-08,-2.07055658102036E-07,100 nA
-0.473480224609375,17.8926019548255,-5.6304931640625E-08,-0.4730224609375,2,482,3.99465933442116E-08,-2.07055658102036E-07,100 nA
-0.475921630859375,17.9170159547639,-5.70068359375E-08,-0.475433349609375,2,483,3.99465933442116E-08,-2.07055658102036E-07,100 nA
-0.478363037109375,17.9414299547022,-5.7281494140625E-08,-0.477874755859375,2,484,3.99465933442116E-08,-2.07055658102036E-07,100 nA
-0.480804443359375,17.9658439546406,-5.8197021484375E-08,-0.480255126953125,2,485,3.99465933442116E-08,-2.07055658102036E-07,100 nA
-0.483245849609375,17.990257954579,-5.84716796875E-08,-0.48272705078125,2,486,3.99465933442116E-08,-2.07055658102036E-07,100 nA
-0.485687255859375,18.0146719545173,-5.938720703125E-08,-0.485198974609375,2,487,3.99465933442116E-08,-2.07055658102036E-07,100 nA
-0.488128662109375,18.0390859544557,-5.9967041015625E-08,-0.487579345703125,2,488,3.99465933442116E-08,-2.07055658102036E-07,100 nA
-0.490570068359375,18.063499954394,-6.036376953125E-08,-0.490020751953125,2,489,3.99465933442116E-08,-2.07055658102036E-07,100 nA
-0.493011474609375,18.0879139543324,-6.1187744140625E-08,-0.492462158203125,2,490,3.99465933442116E-08,-2.07055658102036E-07,100 nA
-0.495452880859375,18.1123279542708,-6.1767578125E-08,-0.494903564453125,2,491,3.99465933442116E-08,-2.07055658102036E-07,100 nA
-0.497894287109375,18.1367419542091,-6.2469482421875E-08,-0.497344970703125,2,492,3.99465933442116E-08,-2.07055658102036E-07,100 nA
-0.500335693359375,18.1611559541475,-6.3018798828125E-08,-0.499847412109375,2,493,3.99465933442116E-08,-2.07055658102036E-07,100 nA
-0.502777099609375,18.1855699540859,-6.3751220703125E-08,-0.502197265625,2,494,3.99465933442116E-08,-2.07055658102036E-07,100 nA
-0.505218505859375,18.2099839540242,-6.4453125E-08,-0.504669189453125,2,495,3.99465933442116E-08,-2.07055658102036E-07,100 nA
-0.507659912109375,18.2343979539626,-6.5399169921875E-08,-0.507080078125,2,496,3.99465933442116E-08,-2.07055658102036E-07,100 nA
-0.510101318359375,18.2588119539009,-6.5704345703125E-08,-0.509552001953125,2,497,3.99465933442116E-08,-2.07055658102036E-07,100 nA
-0.512542724609375,18.2832259538393,-6.6864013671875E-08,-0.511932373046875,2,498,3.99465933442116E-08,-2.07055658102036E-07,100 nA
-0.514984130859375,18.3076399537777,-6.744384765625E-08,-0.51446533203125,2,499,3.99465933442116E-08,-2.07055658102036E-07,100 nA
-0.517425537109375,18.332053953716,-6.7962646484375E-08,-0.516845703125,2,500,3.99465933442116E-08,-2.07055658102036E-07,100 nA
-0.519866943359375,18.3564679536544,-6.890869140625E-08,-0.51922607421875,2,501,3.99465933442116E-08,-2.07055658102036E-07,100 nA
-0.522308349609375,18.3808819535927,-6.9580078125E-08,-0.521728515625,2,502,3.99465933442116E-08,-2.07055658102036E-07,100 nA
-0.524749755859375,18.4052959535311,-7.0343017578125E-08,-0.524200439453125,2,503,3.99465933442116E-08,-2.07055658102036E-07,100 nA
-0.527191162109375,18.4297099534695,-7.1380615234375E-08,-0.526611328125,2,504,3.99465933442116E-08,-2.07055658102036E-07,100 nA
-0.529632568359375,18.4541239534078,-7.1990966796875E-08,-0.529083251953125,2,505,3.99465933442116E-08,-2.07055658102036E-07,100 nA
-0.532073974609375,18.4785379533462,-7.281494140625E-08,-0.531494140625,2,506,3.99465933442116E-08,-2.07055658102036E-07,100 nA
-0.534515380859375,18.5029519532845,-7.3822021484375E-08,-0.533905029296875,2,507,3.99465933442116E-08,-2.07055658102036E-07,100 nA
-0.536956787109375,18.5273659532229,-7.452392578125E-08,-0.536346435546875,2,508,3.99465933442116E-08,-2.07055658102036E-07,100 nA
-0.539398193359375,18.5517799531613,-7.5408935546875E-08,-0.538818359375,2,509,3.99465933442116E-08,-2.07055658102036E-07,100 nA
-0.541839599609375,18.5761939530996,-7.6263427734375E-08,-0.541168212890625,2,510,3.99465933442116E-08,-2.07055658102036E-07,100 nA
-0.544281005859375,18.600607953038,-7.7178955078125E-08,-0.54364013671875,2,511,3.99465933442116E-08,-2.07055658102036E-07,100 nA
-0.546722412109375,18.6250219529763,-7.794189453125E-08,-0.546142578125,2,512,3.99465933442116E-08,-2.07055658102036E-07,100 nA
-0.549163818359375,18.6494359529147,-7.8704833984375E-08,-0.548583984375,2,513,3.99465933442116E-08,-2.07055658102036E-07,100 nA
-0.551605224609375,18.6738499528531,-7.9864501953125E-08,-0.550933837890625,2,514,3.99465933442116E-08,-2.07055658102036E-07,100 nA
-0.549163818359375,18.6982639527914,-7.4920654296875E-08,-0.54852294921875,2,515,3.99465933442116E-08,-2.07055658102036E-07,100 nA
-0.546722412109375,18.7226779527298,-7.1746826171875E-08,-0.54608154296875,2,516,3.99465933442116E-08,-2.07055658102036E-07,100 nA
-0.544281005859375,18.7470919526681,-6.9610595703125E-08,-0.54364013671875,2,517,3.99465933442116E-08,-2.07055658102036E-07,100 nA
-0.541839599609375,18.7715059526065,-6.7718505859375E-08,-0.541259765625,2,518,3.99465933442116E-08,-2.07055658102036E-07,100 nA
-0.539398193359375,18.7959199525449,-6.5948486328125E-08,-0.53887939453125,2,519,3.99465933442116E-08,-2.07055658102036E-07,100 nA
-0.536956787109375,18.8203339524832,-6.3995361328125E-08,-0.53643798828125,2,520,3.99465933442116E-08,-2.07055658102036E-07,100 nA
-0.534515380859375,18.8447479524216,-6.2347412109375E-08,-0.53387451171875,2,521,3.99465933442116E-08,-2.07055658102036E-07,100 nA
-0.532073974609375,18.8691619523599,-6.11572265625E-08,-0.531524658203125,2,522,3.99465933442116E-08,-2.07055658102036E-07,100 nA
-0.529632568359375,18.8935759522983,-5.9539794921875E-08,-0.529052734375,2,523,3.99465933442116E-08,-2.07055658102036E-07,100 nA
-0.527191162109375,18.9179899522367,-5.8197021484375E-08,-0.526580810546875,2,524,3.99465933442116E-08,-2.07055658102036E-07,100 nA
-0.524749755859375,18.942403952175,-5.6854248046875E-08,-0.524200439453125,2,525,3.99465933442116E-08,-2.07055658102036E-07,100 nA
-0.522308349609375,18.9668179521134,-5.5450439453125E-08,-0.521728515625,2,526,3.99465933442116E-08,-2.07055658102036E-07,100 nA
-0.519866943359375,18.9912319520517,-5.4290771484375E-08,-0.519256591796875,2,527,3.99465933442116E-08,-2.07055658102036E-07,100 nA
-0.517425537109375,19.0156459519901,-5.3131103515625E-08,-0.51690673828125,2,528,3.99465933442116E-08,-2.07055658102036E-07,100 nA
-0.514984130859375,19.0400599519285,-5.206298828125E-08,-0.51446533203125,2,529,3.99465933442116E-08,-2.07055658102036E-07,100 nA
-0.512542724609375,19.0644739518668,-5.0872802734375E-08,-0.511993408203125,2,530,3.99465933442116E-08,-2.07055658102036E-07,100 nA
-0.510101318359375,19.0888879518052,-4.98046875E-08,-0.509521484375,2,531,3.99465933442116E-08,-2.07055658102036E-07,100 nA
-0.507659912109375,19.1133019517436,-4.8553466796875E-08,-0.507110595703125,2,532,3.99465933442116E-08,-2.07055658102036E-07,100 nA
-0.505218505859375,19.1377159516819,-4.7576904296875E-08,-0.504669189453125,2,533,3.99465933442116E-08,-2.07055658102036E-07,100 nA
-0.502777099609375,19.1621299516203,-4.66339111328125E-08,-0.502227783203125,2,534,3.99465933442116E-08,-2.07055658102036E-07,100 nA
-0.500335693359375,19.1865439515586,-4.54345703125E-08,-0.49981689453125,2,535,3.99465933442116E-08,-2.07055658102036E-07,100 nA
-0.497894287109375,19.210957951497,-4.471435546875E-08,-0.49737548828125,2,536,3.99465933442116E-08,-2.07055658102036E-07,100 nA
-0.495452880859375,19.2353719514354,-4.36004638671875E-08,-0.494964599609375,2,537,3.99465933442116E-08,-2.07055658102036E-07,100 nA
-0.493011474609375,19.2597859513737,-4.26422119140625E-08,-0.492523193359375,2,538,3.99465933442116E-08,-2.07055658102036E-07,100 nA
-0.490570068359375,19.2841999513121,-4.1644287109375E-08,-0.490081787109375,2,539,3.99465933442116E-08,-2.07055658102036E-07,100 nA
-0.488128662109375,19.3086139512504,-4.08538818359375E-08,-0.487640380859375,2,540,3.99465933442116E-08,-2.07055658102036E-07,100 nA
-0.485687255859375,19.3330279511888,-3.98956298828125E-08,-0.4852294921875,2,541,3.99465933442116E-08,-2.07055658102036E-07,100 nA
-0.483245849609375,19.3574419511272,-3.90411376953125E-08,-0.48272705078125,2,542,3.99465933442116E-08,-2.07055658102036E-07,100 nA
-0.480804443359375,19.3818559510655,-3.81927490234375E-08,-0.480316162109375,2,543,3.99465933442116E-08,-2.07055658102036E-07,100 nA
-0.478363037109375,19.4062699510039,-3.731689453125E-08,-0.477874755859375,2,544,3.99465933442116E-08,-2.07055658102036E-07,100 nA
-0.475921630859375,19.4306839509422,-3.65386962890625E-08,-0.475494384765625,2,545,3.99465933442116E-08,-2.07055658102036E-07,100 nA
-0.473480224609375,19.4550979508806,-3.5845947265625E-08,-0.472991943359375,2,546,3.99465933442116E-08,-2.07055658102036E-07,100 nA
-0.471038818359375,19.479511950819,-3.487548828125E-08,-0.470550537109375,2,547,3.99465933442116E-08,-2.07055658102036E-07,100 nA
-0.468597412109375,19.5039259507573,-3.41278076171875E-08,-0.468109130859375,2,548,3.99465933442116E-08,-2.07055658102036E-07,100 nA
-0.466156005859375,19.5283399506957,-3.34442138671875E-08,-0.465667724609375,2,549,3.99465933442116E-08,-2.07055658102036E-07,100 nA
-0.463714599609375,19.552753950634,-3.27484130859375E-08,-0.46319580078125,2,550,3.99465933442116E-08,-2.07055658102036E-07,100 nA
-0.461273193359375,19.5771679505724,-3.18878173828125E-08,-0.4608154296875,2,551,3.99465933442116E-08,-2.07055658102036E-07,100 nA
-0.458831787109375,19.6015819505108,-3.11248779296875E-08,-0.458404541015625,2,552,3.99465933442116E-08,-2.07055658102036E-07,100 nA
-0.456390380859375,19.6259959504491,-3.040771484375E-08,-0.455902099609375,2,553,3.99465933442116E-08,-2.07055658102036E-07,100 nA
-0.453948974609375,19.6504099503875,-2.972412109375E-08,-0.4534912109375,2,554,3.99465933442116E-08,-2.07055658102036E-07,100 nA
-0.451507568359375,19.6748239503258,-2.900390625E-08,-0.451080322265625,2,555,3.99465933442116E-08,-2.07055658102036E-07,100 nA
-0.449066162109375,19.6992379502642,-2.84515380859375E-08,-0.448577880859375,2,556,3.99465933442116E-08,-2.07055658102036E-07,100 nA
-0.446624755859375,19.7236519502026,-2.7545166015625E-08,-0.446136474609375,2,557,3.99465933442116E-08,-2.07055658102036E-07,100 nA
-0.444183349609375,19.7480659501409,-2.696533203125E-08,-0.443756103515625,2,558,3.99465933442116E-08,-2.07055658102036E-07,100 nA
-0.441741943359375,19.7724799500793,-2.63458251953125E-08,-0.441253662109375,2,559,3.99465933442116E-08,-2.07055658102036E-07,100 nA
-0.439300537109375,19.7968939500176,-2.55157470703125E-08,-0.438873291015625,2,560,3.99465933442116E-08,-2.07055658102036E-07,100 nA
-0.436859130859375,19.821307949956,-2.48809814453125E-08,-0.436431884765625,2,561,3.99465933442116E-08,-2.07055658102036E-07,100 nA
-0.434417724609375,19.8457219498944,-2.44354248046875E-08,-0.4339599609375,2,562,3.99465933442116E-08,-2.07055658102036E-07,100 nA
-0.431976318359375,19.8701359498327,-2.3919677734375E-08,-0.4315185546875,2,563,3.99465933442116E-08,-2.07055658102036E-07,100 nA
-0.429534912109375,19.8945499497711,-2.3046875E-08,-0.4290771484375,2,564,3.99465933442116E-08,-2.07055658102036E-07,100 nA
-0.427093505859375,19.9189639497095,-2.2686767578125E-08,-0.42669677734375,2,565,3.99465933442116E-08,-2.07055658102036E-07,100 nA
-0.424652099609375,19.9433779496478,-2.1942138671875E-08,-0.42425537109375,2,566,3.99465933442116E-08,-2.07055658102036E-07,100 nA
-0.422210693359375,19.9677919495862,-2.15179443359375E-08,-0.421844482421875,2,567,3.99465933442116E-08,-2.07055658102036E-07,100 nA
-0.419769287109375,19.9922059495245,-2.07763671875E-08,-0.419342041015625,2,568,3.99465933442116E-08,-2.07055658102036E-07,100 nA
-0.417327880859375,20.0166199494629,-2.02850341796875E-08,-0.41693115234375,2,569,3.99465933442116E-08,-2.07055658102036E-07,100 nA
-0.414886474609375,20.0410339494013,-1.9647216796875E-08,-0.414459228515625,2,570,3.99465933442116E-08,-2.07055658102036E-07,100 nA
-0.412445068359375,20.0654479493396,-1.93115234375E-08,-0.412017822265625,2,571,3.99465933442116E-08,-2.07055658102036E-07,100 nA
-0.410003662109375,20.089861949278,-1.85028076171875E-08,-0.409576416015625,2,572,3.99465933442116E-08,-2.07055658102036E-07,100 nA
-0.407562255859375,20.1142759492163,-1.79473876953125E-08,-0.40716552734375,2,573,3.99465933442116E-08,-2.07055658102036E-07,100 nA
-0.405120849609375,20.1386899491547,-1.77642822265625E-08,-0.4046630859375,2,574,3.99465933442116E-08,-2.07055658102036E-07,100 nA
-0.402679443359375,20.1631039490931,-1.68304443359375E-08,-0.402252197265625,2,575,3.99465933442116E-08,-2.07055658102036E-07,100 nA
-0.400238037109375,20.1875179490314,-1.63665771484375E-08,-0.3997802734375,2,576,3.99465933442116E-08,-2.07055658102036E-07,100 nA
-0.397796630859375,20.2119319489698,-1.59332275390625E-08,-0.397430419921875,2,577,3.99465933442116E-08,-2.07055658102036E-07,100 nA
-0.395355224609375,20.2363459489081,-1.5301513671875E-08,-0.39495849609375,2,578,3.99465933442116E-08,-2.07055658102036E-07,100 nA
-0.392913818359375,20.2607599488465,-1.48345947265625E-08,-0.392578125,2,579,3.99465933442116E-08,-2.07055658102036E-07,100 nA
-0.390472412109375,20.2851739487849,-1.4447021484375E-08,-0.39007568359375,2,580,3.99465933442116E-08,-2.07055658102036E-07,100 nA
-0.388031005859375,20.3095879487232,-1.37725830078125E-08,-0.38763427734375,2,581,3.99465933442116E-08,-2.07055658102036E-07,100 nA
-0.385589599609375,20.3340019486616,-1.328125E-08,-0.38519287109375,2,582,3.99465933442116E-08,-2.07055658102036E-07,100 nA
-0.383148193359375,20.3584159485999,-1.2841796875E-08,-0.382720947265625,2,583,3.99465933442116E-08,-2.07055658102036E-07,100 nA
-0.380706787109375,20.3828299485383,-1.2322998046875E-08,-0.380340576171875,2,584,3.99465933442116E-08,-2.07055658102036E-07,100 nA
-0.378265380859375,20.4072439484767,-1.18072509765625E-08,-0.37786865234375,2,585,3.99465933442116E-08,-2.07055658102036E-07,100 nA
-0.375823974609375,20.431657948415,-1.14044189453125E-08,-0.37542724609375,2,586,3.99465933442116E-08,-2.07055658102036E-07,100 nA
-0.373382568359375,20.4560719483534,-1.0919189453125E-08,-0.37298583984375,2,587,3.99465933442116E-08,-2.07055658102036E-07,100 nA
-0.370941162109375,20.4804859482917,-1.048583984375E-08,-0.37054443359375,2,588,3.99465933442116E-08,-2.07055658102036E-07,100 nA
-0.368499755859375,20.5048999482301,-1.01348876953125E-08,-0.36810302734375,2,589,3.99465933442116E-08,-2.07055658102036E-07,100 nA
-0.366058349609375,20.5293139481685,-9.6038818359375E-09,-0.365631103515625,2,590,3.99465933442116E-08,-2.07055658102036E-07,100 nA
-0.363616943359375,20.5537279481068,-9.185791015625E-09,-0.36322021484375,2,591,3.99465933442116E-08,-2.07055658102036E-07,100 nA
-0.361175537109375,20.5781419480452,-8.7066650390625E-09,-0.36077880859375,2,592,3.99465933442116E-08,-2.07055658102036E-07,100 nA
-0.358734130859375,20.6025559479835,-8.1878662109375E-09,-0.35833740234375,2,593,3.99465933442116E-08,-2.07055658102036E-07,100 nA
-0.356292724609375,20.6269699479219,-7.65380859375E-09,-0.35589599609375,2,594,3.99465933442116E-08,-2.07055658102036E-07,100 nA
-0.353851318359375,20.6513839478603,-7.2265625E-09,-0.353515625,2,595,3.99465933442116E-08,-2.07055658102036E-07,100 nA
-0.351409912109375,20.6757979477986,-6.8145751953125E-09,-0.351104736328125,2,596,3.99465933442116E-08,-2.07055658102036E-07,100 nA
-0.348968505859375,20.700211947737,-6.378173828125E-09,-0.34857177734375,2,597,3.99465933442116E-08,-2.07055658102036E-07,100 nA
-0.346527099609375,20.7246259476753,-5.89599609375E-09,-0.346160888671875,2,598,3.99465933442116E-08,-2.07055658102036E-07,100 nA
-0.344085693359375,20.7490399476137,-5.4412841796875E-09,-0.343719482421875,2,599,3.99465933442116E-08,-2.07055658102036E-07,100 nA
-0.341644287109375,20.7734539475521,-4.815673828125E-09,-0.34136962890625,2,600,3.99465933442116E-08,-2.07055658102036E-07,100 nA
-0.339202880859375,20.7978679474904,-4.4647216796875E-09,-0.338897705078125,2,601,3.99465933442116E-08,-2.07055658102036E-07,100 nA
-0.336761474609375,20.8222819474288,-4.046630859375E-09,-0.33642578125,2,602,3.99465933442116E-08,-2.07055658102036E-07,100 nA
-0.334320068359375,20.8466959473672,-3.3935546875E-09,-0.334014892578125,2,603,3.99465933442116E-08,-2.07055658102036E-07,100 nA
-0.331878662109375,20.8711099473055,-2.9510498046875E-09,-0.331512451171875,2,604,3.99465933442116E-08,-2.07055658102036E-07,100 nA
-0.329437255859375,20.8955239472439,-2.3223876953125E-09,-0.329071044921875,2,605,3.99465933442116E-08,-2.07055658102036E-07,100 nA
-0.326995849609375,20.9199379471822,-2.276611328125E-09,-0.326629638671875,2,606,3.99465933442116E-08,-2.07055658102036E-07,100 nA
-0.324554443359375,20.9443519471206,-1.3372802734375E-09,-0.324249267578125,2,607,3.99465933442116E-08,-2.07055658102036E-07,100 nA
-0.322113037109375,20.968765947059,-7.843017578125E-10,-0.32183837890625,2,608,3.99465933442116E-08,-2.07055658102036E-07,100 nA
-0.319671630859375,20.9931799469973,-2.22167968750001E-10,-0.3193359375,2,609,3.99465933442116E-08,-2.07055658102036E-07,100 nA
-0.317230224609375,21.0175939469357,2.001953125E-10,-0.31695556640625,2,610,3.99465933442116E-08,-2.07055658102036E-07,100 nA
-0.314788818359375,21.042007946874,9.1064453125E-10,-0.3145751953125,2,611,3.99465933442116E-08,-2.07055658102036E-07,100 nA
-0.312347412109375,21.0664219468124,1.84722900390625E-09,-0.31201171875,2,612,3.99465933442116E-08,-2.07055658102036E-07,100 nA
-0.309906005859375,21.0908359467508,2.3126220703125E-09,-0.309539794921875,2,613,3.99465933442116E-08,-2.07055658102036E-07,100 nA
-0.307464599609375,21.1152499466891,3.3172607421875E-09,-0.30712890625,2,614,3.99465933442116E-08,-2.07055658102036E-07,100 nA
-0.305023193359375,21.1396639466275,3.7567138671875E-09,-0.3046875,2,615,3.99465933442116E-08,-2.07055658102036E-07,100 nA
-0.302581787109375,21.1640779465658,4.510498046875E-09,-0.30224609375,2,616,3.99465933442116E-08,-2.07055658102036E-07,100 nA
-0.300140380859375,21.1884919465042,5.1483154296875E-09,-0.299835205078125,2,617,3.99465933442116E-08,-2.07055658102036E-07,100 nA
-0.297698974609375,21.2129059464426,5.706787109375E-09,-0.297393798828125,2,618,3.99465933442116E-08,-2.07055658102036E-07,100 nA
-0.295257568359375,21.2373199463809,6.4056396484375E-09,-0.294952392578125,2,619,3.99465933442116E-08,-2.07055658102036E-07,100 nA
-0.292816162109375,21.2617339463193,6.939697265625E-09,-0.292510986328125,2,620,3.99465933442116E-08,-2.07055658102036E-07,100 nA
-0.290374755859375,21.2861479462576,7.4798583984375E-09,-0.290008544921875,2,621,3.99465933442116E-08,-2.07055658102036E-07,100 nA
-0.287933349609375,21.310561946196,7.958984375E-09,-0.28759765625,2,622,3.99465933442116E-08,-2.07055658102036E-07,100 nA
-0.285491943359375,21.3349759461344,8.16650390625E-09,-0.285125732421875,2,623,3.99465933442116E-08,-2.07055658102036E-07,100 nA
-0.283050537109375,21.3593899460727,8.7127685546875E-09,-0.28277587890625,2,624,3.99465933442116E-08,-2.07055658102036E-07,100 nA
-0.280609130859375,21.3838039460111,8.819580078125E-09,-0.280303955078125,2,625,3.99465933442116E-08,-2.07055658102036E-07,100 nA
-0.278167724609375,21.4082179459494,9.02099609375E-09,-0.27789306640625,2,626,3.99465933442116E-08,-2.07055658102036E-07,100 nA
-0.275726318359375,21.4326319458878,9.26513671875E-09,-0.275390625,2,627,3.99465933442116E-08,-2.07055658102036E-07,100 nA
-0.273284912109375,21.4570459458262,9.356689453125E-09,-0.272979736328125,2,628,3.99465933442116E-08,-2.07055658102036E-07,100 nA
-0.270843505859375,21.4814599457645,9.674072265625E-09,-0.270538330078125,2,629,3.99465933442116E-08,-2.07055658102036E-07,100 nA
-0.268402099609375,21.5058739457029,9.814453125E-09,-0.26806640625,2,630,3.99465933442116E-08,-2.07055658102036E-07,100 nA
-0.265960693359375,21.5302879456412,9.869384765625E-09,-0.265655517578125,2,631,3.99465933442116E-08,-2.07055658102036E-07,100 nA
-0.263519287109375,21.5547019455796,9.979248046875E-09,-0.26324462890625,2,632,3.99465933442116E-08,-2.07055658102036E-07,100 nA
-0.261077880859375,21.579115945518,1.00128173828125E-08,-0.260772705078125,2,633,3.99465933442116E-08,-2.07055658102036E-07,100 nA
-0.258636474609375,21.6035299454563,1.02447509765625E-08,-0.25836181640625,2,634,3.99465933442116E-08,-2.07055658102036E-07,100 nA
-0.256195068359375,21.6279439453947,1.048583984375E-08,-0.255859375,2,635,3.99465933442116E-08,-2.07055658102036E-07,100 nA
-0.253753662109375,21.6523579453331,1.0357666015625E-08,-0.253448486328125,2,636,3.99465933442116E-08,-2.07055658102036E-07,100 nA
-0.251312255859375,21.6767719452714,1.08551025390625E-08,-0.251007080078125,2,637,3.99465933442116E-08,-2.07055658102036E-07,100 nA
-0.248870849609375,21.7011859452098,1.07025146484375E-08,-0.248626708984375,2,638,3.99465933442116E-08,-2.07055658102036E-07,100 nA
-0.246429443359375,21.7255999451481,1.1016845703125E-08,-0.246124267578125,2,639,3.99465933442116E-08,-2.07055658102036E-07,100 nA
-0.243988037109375,21.7500139450865,1.10626220703125E-08,-0.243682861328125,2,640,3.99465933442116E-08,-2.07055658102036E-07,100 nA
-0.241546630859375,21.7744279450249,1.15997314453125E-08,-0.24127197265625,2,641,3.99465933442116E-08,-2.07055658102036E-07,100 nA
-0.239105224609375,21.7988419449632,1.1859130859375E-08,-0.238800048828125,2,642,3.99465933442116E-08,-2.07055658102036E-07,100 nA
-0.236663818359375,21.8232559449016,1.19842529296875E-08,-0.23638916015625,2,643,3.99465933442116E-08,-2.07055658102036E-07,100 nA
-0.234222412109375,21.8476699448399,1.21429443359375E-08,-0.233978271484375,2,644,3.99465933442116E-08,-2.07055658102036E-07,100 nA
-0.231781005859375,21.8720839447783,1.2298583984375E-08,-0.231536865234375,2,645,3.99465933442116E-08,-2.07055658102036E-07,100 nA
-0.229339599609375,21.8964979447167,1.2548828125E-08,-0.2291259765625,2,646,3.99465933442116E-08,-2.07055658102036E-07,100 nA
-0.226898193359375,21.920911944655,1.28021240234375E-08,-0.22662353515625,2,647,3.99465933442116E-08,-2.07055658102036E-07,100 nA
-0.224456787109375,21.9453259445934,1.302490234375E-08,-0.2242431640625,2,648,3.99465933442116E-08,-2.07055658102036E-07,100 nA
-0.222015380859375,21.9697399445317,1.33056640625E-08,-0.221832275390625,2,649,3.99465933442116E-08,-2.07055658102036E-07,100 nA
-0.219573974609375,21.9941539444701,1.38214111328125E-08,-0.219268798828125,2,650,3.99465933442116E-08,-2.07055658102036E-07,100 nA
-0.217132568359375,22.0185679444085,1.37969970703125E-08,-0.2169189453125,2,651,3.99465933442116E-08,-2.07055658102036E-07,100 nA
-0.214691162109375,22.0429819443468,1.4080810546875E-08,-0.2144775390625,2,652,3.99465933442116E-08,-2.07055658102036E-07,100 nA
-0.212249755859375,22.0673959442852,1.43218994140625E-08,-0.212005615234375,2,653,3.99465933442116E-08,-2.07055658102036E-07,100 nA
-0.209808349609375,22.0918099442235,1.4691162109375E-08,-0.209564208984375,2,654,3.99465933442116E-08,-2.07055658102036E-07,100 nA
-0.207366943359375,22.1162239441619,1.48590087890625E-08,-0.207122802734375,2,655,3.99465933442116E-08,-2.07055658102036E-07,100 nA
-0.204925537109375,22.1406379441003,1.514892578125E-08,-0.204681396484375,2,656,3.99465933442116E-08,-2.07055658102036E-07,100 nA
-0.202484130859375,22.1650519440386,1.5423583984375E-08,-0.20220947265625,2,657,3.99465933442116E-08,-2.07055658102036E-07,100 nA
-0.200042724609375,22.189465943977,1.5753173828125E-08,-0.199798583984375,2,658,3.99465933442116E-08,-2.07055658102036E-07,100 nA
-0.197601318359375,22.2138799439153,1.5972900390625E-08,-0.197357177734375,2,659,3.99465933442116E-08,-2.07055658102036E-07,100 nA
-0.195159912109375,22.2382939438537,1.62689208984375E-08,-0.194915771484375,2,660,3.99465933442116E-08,-2.07055658102036E-07,100 nA
-0.192718505859375,22.2627079437921,1.65679931640625E-08,-0.1925048828125,2,661,3.99465933442116E-08,-2.07055658102036E-07,100 nA
-0.190277099609375,22.2871219437304,1.668701171875E-08,-0.1900634765625,2,662,3.99465933442116E-08,-2.07055658102036E-07,100 nA
-0.187835693359375,22.3115359436688,1.70623779296875E-08,-0.187591552734375,2,663,3.99465933442116E-08,-2.07055658102036E-07,100 nA
-0.185394287109375,22.3359499436071,1.72149658203125E-08,-0.1851806640625,2,664,3.99465933442116E-08,-2.07055658102036E-07,100 nA
-0.182952880859375,22.3603639435455,1.7669677734375E-08,-0.182708740234375,2,665,3.99465933442116E-08,-2.07055658102036E-07,100 nA
-0.180511474609375,22.3847779434839,1.79443359375E-08,-0.1802978515625,2,666,3.99465933442116E-08,-2.07055658102036E-07,100 nA
-0.178070068359375,22.4091919434222,1.79473876953125E-08,-0.177825927734375,2,667,3.99465933442116E-08,-2.07055658102036E-07,100 nA
-0.175628662109375,22.4336059433606,1.832275390625E-08,-0.1754150390625,2,668,3.99465933442116E-08,-2.07055658102036E-07,100 nA
-0.173187255859375,22.458019943299,1.861572265625E-08,-0.1729736328125,2,669,3.99465933442116E-08,-2.07055658102036E-07,100 nA
-0.170745849609375,22.4824339432373,1.89910888671875E-08,-0.170440673828125,2,670,3.99465933442116E-08,-2.07055658102036E-07,100 nA
-0.168304443359375,22.5068479431757,1.93023681640625E-08,-0.16802978515625,2,671,3.99465933442116E-08,-2.07055658102036E-07,100 nA
-0.165863037109375,22.531261943114,1.94427490234375E-08,-0.1656494140625,2,672,3.99465933442116E-08,-2.07055658102036E-07,100 nA
-0.163421630859375,22.5556759430524,1.971435546875E-08,-0.16314697265625,2,673,3.99465933442116E-08,-2.07055658102036E-07,100 nA
-0.160980224609375,22.5800899429908,1.99951171875E-08,-0.16082763671875,2,674,3.99465933442116E-08,-2.07055658102036E-07,100 nA
-0.158538818359375,22.6045039429291,2.0391845703125E-08,-0.158355712890625,2,675,3.99465933442116E-08,-2.07055658102036E-07,100 nA
-0.156097412109375,22.6289179428675,2.0648193359375E-08,-0.155914306640625,2,676,3.99465933442116E-08,-2.07055658102036E-07,100 nA
-0.153656005859375,22.6533319428058,2.07763671875E-08,-0.153472900390625,2,677,3.99465933442116E-08,-2.07055658102036E-07,100 nA
-0.151214599609375,22.6777459427442,2.12310791015625E-08,-0.1510009765625,2,678,3.99465933442116E-08,-2.07055658102036E-07,100 nA
-0.148773193359375,22.7021599426826,2.138671875E-08,-0.14862060546875,2,679,3.99465933442116E-08,-2.07055658102036E-07,100 nA
-0.146331787109375,22.7265739426209,2.166748046875E-08,-0.1461181640625,2,680,3.99465933442116E-08,-2.07055658102036E-07,100 nA
-0.143890380859375,22.7509879425593,2.1942138671875E-08,-0.143707275390625,2,681,3.99465933442116E-08,-2.07055658102036E-07,100 nA
-0.141448974609375,22.7754019424976,2.21954345703125E-08,-0.141204833984375,2,682,3.99465933442116E-08,-2.07055658102036E-07,100 nA
-0.139007568359375,22.799815942436,2.2576904296875E-08,-0.13885498046875,2,683,3.99465933442116E-08,-2.07055658102036E-07,100 nA
-0.136566162109375,22.8242299423744,2.28485107421875E-08,-0.1363525390625,2,684,3.99465933442116E-08,-2.07055658102036E-07,100 nA
-0.134124755859375,22.8486439423127,2.31201171875E-08,-0.13397216796875,2,685,3.99465933442116E-08,-2.07055658102036E-07,100 nA
-0.131683349609375,22.8730579422511,2.3272705078125E-08,-0.131500244140625,2,686,3.99465933442116E-08,-2.07055658102036E-07,100 nA
-0.129241943359375,22.8974719421894,2.3779296875E-08,-0.129058837890625,2,687,3.99465933442116E-08,-2.07055658102036E-07,100 nA
-0.126800537109375,22.9218859421278,2.37518310546875E-08,-0.12664794921875,2,688,3.99465933442116E-08,-2.07055658102036E-07,100 nA
-0.124359130859375,22.9462999420662,2.43377685546875E-08,-0.124237060546875,2,689,3.99465933442116E-08,-2.07055658102036E-07,100 nA
-0.121917724609375,22.9707139420045,2.4554443359375E-08,-0.12176513671875,2,690,3.99465933442116E-08,-2.07055658102036E-07,100 nA
-0.119476318359375,22.9951279419429,2.4664306640625E-08,-0.119293212890625,2,691,3.99465933442116E-08,-2.07055658102036E-07,100 nA
-0.117034912109375,23.0195419418812,2.5006103515625E-08,-0.116851806640625,2,692,3.99465933442116E-08,-2.07055658102036E-07,100 nA
-0.114593505859375,23.0439559418196,2.537841796875E-08,-0.114471435546875,2,693,3.99465933442116E-08,-2.07055658102036E-07,100 nA
-0.112152099609375,23.068369941758,2.56317138671875E-08,-0.111968994140625,2,694,3.99465933442116E-08,-2.07055658102036E-07,100 nA
-0.109710693359375,23.0927839416963,2.59429931640625E-08,-0.10955810546875,2,695,3.99465933442116E-08,-2.07055658102036E-07,100 nA
-0.107269287109375,23.1171979416347,2.6422119140625E-08,-0.107147216796875,2,696,3.99465933442116E-08,-2.07055658102036E-07,100 nA
-0.104827880859375,23.141611941573,2.63458251953125E-08,-0.10467529296875,2,697,3.99465933442116E-08,-2.07055658102036E-07,100 nA
-0.102386474609375,23.1660259415114,2.69439697265625E-08,-0.102203369140625,2,698,3.99465933442116E-08,-2.07055658102036E-07,100 nA
-0.099945068359375,23.1904399414498,2.72247314453125E-08,-0.09979248046875,2,699,3.99465933442116E-08,-2.07055658102036E-07,100 nA
-0.102386474609375,23.2148539413881,2.33001708984375E-08,-0.10223388671875,2,700,3.99465933442116E-08,-2.07055658102036E-07,100 nA
-0.104827880859375,23.2392679413265,2.14508056640625E-08,-0.104705810546875,2,701,3.99465933442116E-08,-2.07055658102036E-07,100 nA
-0.107269287109375,23.2636819412648,1.98699951171875E-08,-0.1070556640625,2,702,3.99465933442116E-08,-2.07055658102036E-07,100 nA
-0.109710693359375,23.2880959412032,1.84844970703125E-08,-0.10955810546875,2,703,3.99465933442116E-08,-2.07055658102036E-07,100 nA
-0.112152099609375,23.3125099411416,1.727294921875E-08,-0.11199951171875,2,704,3.99465933442116E-08,-2.07055658102036E-07,100 nA
-0.114593505859375,23.3369239410799,1.59454345703125E-08,-0.114410400390625,2,705,3.99465933442116E-08,-2.07055658102036E-07,100 nA
-0.117034912109375,23.3613379410183,1.52923583984375E-08,-0.116851806640625,2,706,3.99465933442116E-08,-2.07055658102036E-07,100 nA
-0.119476318359375,23.3857519409567,1.409912109375E-08,-0.11932373046875,2,707,3.99465933442116E-08,-2.07055658102036E-07,100 nA
-0.121917724609375,23.410165940895,1.3360595703125E-08,-0.1217041015625,2,708,3.99465933442116E-08,-2.07055658102036E-07,100 nA
-0.124359130859375,23.4345799408334,1.24603271484375E-08,-0.12420654296875,2,709,3.99465933442116E-08,-2.07055658102036E-07,100 nA
-0.126800537109375,23.4589939407717,1.1810302734375E-08,-0.126617431640625,2,710,3.99465933442116E-08,-2.07055658102036E-07,100 nA
-0.129241943359375,23.4834079407101,1.08795166015625E-08,-0.12908935546875,2,711,3.99465933442116E-08,-2.07055658102036E-07,100 nA
-0.131683349609375,23.5078219406485,1.01318359375E-08,-0.1314697265625,2,712,3.99465933442116E-08,-2.07055658102036E-07,100 nA
-0.134124755859375,23.5322359405868,9.50927734375E-09,-0.13397216796875,2,713,3.99465933442116E-08,-2.07055658102036E-07,100 nA
-0.136566162109375,23.5566499405252,8.831787109375E-09,-0.1363525390625,2,714,3.99465933442116E-08,-2.07055658102036E-07,100 nA
-0.139007568359375,23.5810639404635,8.2000732421875E-09,-0.13885498046875,2,715,3.99465933442116E-08,-2.07055658102036E-07,100 nA
-0.141448974609375,23.6054779404019,7.3974609375E-09,-0.141204833984375,2,716,3.99465933442116E-08,-2.07055658102036E-07,100 nA
-0.143890380859375,23.6298919403403,6.7413330078125E-09,-0.1436767578125,2,717,3.99465933442116E-08,-2.07055658102036E-07,100 nA
-0.146331787109375,23.6543059402786,6.268310546875E-09,-0.146148681640625,2,718,3.99465933442116E-08,-2.07055658102036E-07,100 nA
-0.148773193359375,23.678719940217,5.462646484375E-09,-0.1485595703125,2,719,3.99465933442116E-08,-2.07055658102036E-07,100 nA
-0.151214599609375,23.7031339401553,4.82177734375E-09,-0.151031494140625,2,720,3.99465933442116E-08,-2.07055658102036E-07,100 nA
-0.153656005859375,23.7275479400937,4.2205810546875E-09,-0.153472900390625,2,721,3.99465933442116E-08,-2.07055658102036E-07,100 nA
-0.156097412109375,23.7519619400321,3.4759521484375E-09,-0.155914306640625,2,722,3.99465933442116E-08,-2.07055658102036E-07,100 nA
-0.158538818359375,23.7763759399704,3.167724609375E-09,-0.158294677734375,2,723,3.99465933442116E-08,-2.07055658102036E-07,100 nA
-0.160980224609375,23.8007899399088,2.3822021484375E-09,-0.16070556640625,2,724,3.99465933442116E-08,-2.07055658102036E-07,100 nA
-0.163421630859375,23.8252039398471,1.78863525390625E-09,-0.163177490234375,2,725,3.99465933442116E-08,-2.07055658102036E-07,100 nA
-0.165863037109375,23.8496179397855,1.243896484375E-09,-0.16558837890625,2,726,3.99465933442116E-08,-2.07055658102036E-07,100 nA
-0.168304443359375,23.8740319397239,7.48291015624999E-10,-0.167999267578125,2,727,3.99465933442116E-08,-2.07055658102036E-07,100 nA
-0.170745849609375,23.8984459396622,4.5928955078125E-10,-0.1705322265625,2,728,3.99465933442116E-08,-2.07055658102036E-07,100 nA
-0.173187255859375,23.9228599396006,-2.178955078125E-10,-0.17291259765625,2,729,3.99465933442116E-08,-2.07055658102036E-07,100 nA
-0.175628662109375,23.9472739395389,-6.243896484375E-10,-0.17535400390625,2,730,3.99465933442116E-08,-2.07055658102036E-07,100 nA
-0.178070068359375,23.9716879394773,-1.190185546875E-09,-0.177825927734375,2,731,3.99465933442116E-08,-2.07055658102036E-07,100 nA
-0.180511474609375,23.9961019394157,-1.79443359375E-09,-0.18023681640625,2,732,3.99465933442116E-08,-2.07055658102036E-07,100 nA
-0.182952880859375,24.020515939354,-2.3712158203125E-09,-0.18267822265625,2,733,3.99465933442116E-08,-2.07055658102036E-07,100 nA
-0.185394287109375,24.0449299392924,-2.703857421875E-09,-0.185089111328125,2,734,3.99465933442116E-08,-2.07055658102036E-07,100 nA
-0.187835693359375,24.0693439392307,-3.30810546875E-09,-0.1876220703125,2,735,3.99465933442116E-08,-2.07055658102036E-07,100 nA
-0.190277099609375,24.0937579391691,-3.61328125E-09,-0.19000244140625,2,736,3.99465933442116E-08,-2.07055658102036E-07,100 nA
-0.192718505859375,24.1181719391075,-4.302978515625E-09,-0.192535400390625,2,737,3.99465933442116E-08,-2.07055658102036E-07,100 nA
-0.195159912109375,24.1425859390458,-4.72412109375E-09,-0.194854736328125,2,738,3.99465933442116E-08,-2.07055658102036E-07,100 nA
-0.197601318359375,24.1669999389842,-5.0689697265625E-09,-0.19732666015625,2,739,3.99465933442116E-08,-2.07055658102036E-07,100 nA
-0.200042724609375,24.1914139389226,-5.450439453125E-09,-0.19976806640625,2,740,3.99465933442116E-08,-2.07055658102036E-07,100 nA
