Potential applied (V),Time (s),WE(1).Current (A),WE(1).Potential (V),Scan,Index,Q+,Q-,Current range
-0.202484130859375,6.12291598454112,-7.66601562499999E-10,-0.202178955078125,1,1,2.20064595341682E-08,-4.86866682767868E-08,100 nA
-0.204925537109375,6.14732998447948,-1.28570556640625E-09,-0.204620361328125,1,2,2.20064595341682E-08,-4.86866682767868E-08,100 nA
-0.207366943359375,6.17174398441784,-1.3031005859375E-09,-0.20709228515625,1,3,2.20064595341682E-08,-4.86866682767868E-08,100 nA
-0.209808349609375,6.1961579843562,-1.60919189453125E-09,-0.209564208984375,1,4,2.20064595341682E-08,-4.86866682767868E-08,100 nA
-0.212249755859375,6.22057198429457,-1.826171875E-09,-0.21197509765625,1,5,2.20064595341682E-08,-4.86866682767868E-08,100 nA
-0.214691162109375,6.24498598423293,-1.98944091796875E-09,-0.214447021484375,1,6,2.20064595341682E-08,-4.86866682767868E-08,100 nA
-0.217132568359375,6.26939998417129,-2.423095703125E-09,-0.21685791015625,1,7,2.20064595341682E-08,-4.86866682767868E-08,100 nA
-0.219573974609375,6.29381398410965,-2.178955078125E-09,-0.21929931640625,1,8,2.20064595341682E-08,-4.86866682767868E-08,100 nA
-0.222015380859375,6.31822798404801,-2.362060546875E-09,-0.221710205078125,1,9,2.20064595341682E-08,-4.86866682767868E-08,100 nA
-0.224456787109375,6.34264198398637,-2.80426025390625E-09,-0.22418212890625,1,10,2.20064595341682E-08,-4.86866682767868E-08,100 nA
-0.226898193359375,6.36705598392473,-2.647705078125E-09,-0.22662353515625,1,11,2.20064595341682E-08,-4.86866682767868E-08,100 nA
-0.229339599609375,6.39146998386309,-2.789306640625E-09,-0.229034423828125,1,12,2.20064595341682E-08,-4.86866682767868E-08,100 nA
-0.231781005859375,6.41588398380145,-3.01513671875E-09,-0.23150634765625,1,13,2.20064595341682E-08,-4.86866682767868E-08,100 nA
-0.234222412109375,6.44029798373981,-3.228759765625E-09,-0.233978271484375,1,14,2.20064595341682E-08,-4.86866682767868E-08,100 nA
-0.236663818359375,6.46471198367817,-3.216552734375E-09,-0.23638916015625,1,15,2.20064595341682E-08,-4.86866682767868E-08,100 nA
-0.239105224609375,6.48912598361653,-3.460693359375E-09,-0.238800048828125,1,16,2.20064595341682E-08,-4.86866682767868E-08,100 nA
-0.241546630859375,6.51353998355489,-3.5369873046875E-09,-0.24127197265625,1,17,2.20064595341682E-08,-4.86866682767868E-08,100 nA
-0.243988037109375,6.53795398349325,-3.8970947265625E-09,-0.24365234375,1,18,2.20064595341682E-08,-4.86866682767868E-08,100 nA
-0.246429443359375,6.56236798343161,-4.0313720703125E-09,-0.24609375,1,19,2.20064595341682E-08,-4.86866682767868E-08,100 nA
-0.248870849609375,6.58678198336997,-4.327392578125E-09,-0.248565673828125,1,20,2.20064595341682E-08,-4.86866682767868E-08,100 nA
-0.251312255859375,6.61119598330833,-4.510498046875E-09,-0.2509765625,1,21,2.20064595341682E-08,-4.86866682767868E-08,100 nA
-0.253753662109375,6.6356099832467,-4.864501953125E-09,-0.25347900390625,1,22,2.20064595341682E-08,-4.86866682767868E-08,100 nA
-0.256195068359375,6.66002398318506,-5.029296875E-09,-0.255859375,1,23,2.20064595341682E-08,-4.86866682767868E-08,100 nA
-0.258636474609375,6.68443798312342,-5.5450439453125E-09,-0.25830078125,1,24,2.20064595341682E-08,-4.86866682767868E-08,100 nA
-0.261077880859375,6.70885198306178,-6.0394287109375E-09,-0.2607421875,1,25,2.20064595341682E-08,-4.86866682767868E-08,100 nA
-0.263519287109375,6.73326598300014,-6.5155029296875E-09,-0.26318359375,1,26,2.20064595341682E-08,-4.86866682767868E-08,100 nA
-0.265960693359375,6.7576799829385,-6.9610595703125E-09,-0.265625,1,27,2.20064595341682E-08,-4.86866682767868E-08,100 nA
-0.268402099609375,6.78209398287686,-7.7117919921875E-09,-0.268035888671875,1,28,2.20064595341682E-08,-4.86866682767868E-08,100 nA
-0.270843505859375,6.80650798281522,-8.428955078125E-09,-0.27056884765625,1,29,2.20064595341682E-08,-4.86866682767868E-08,100 nA
-0.273284912109375,6.83092198275358,-9.27734375E-09,-0.272918701171875,1,30,2.20064595341682E-08,-4.86866682767868E-08,100 nA
-0.275726318359375,6.85533598269194,-1.011962890625E-08,-0.275390625,1,31,2.20064595341682E-08,-4.86866682767868E-08,100 nA
-0.278167724609375,6.8797499826303,-1.10260009765625E-08,-0.27783203125,1,32,2.20064595341682E-08,-4.86866682767868E-08,100 nA
-0.280609130859375,6.90416398256866,-1.17462158203125E-08,-0.280242919921875,1,33,2.20064595341682E-08,-4.86866682767868E-08,100 nA
-0.283050537109375,6.92857798250702,-1.27960205078125E-08,-0.282684326171875,1,34,2.20064595341682E-08,-4.86866682767868E-08,100 nA
-0.285491943359375,6.95299198244538,-1.3720703125E-08,-0.28509521484375,1,35,2.20064595341682E-08,-4.86866682767868E-08,100 nA
-0.287933349609375,6.97740598238374,-1.48406982421875E-08,-0.28759765625,1,36,2.20064595341682E-08,-4.86866682767868E-08,100 nA
-0.290374755859375,7.0018199823221,-1.5618896484375E-08,-0.290008544921875,1,37,2.20064595341682E-08,-4.86866682767868E-08,100 nA
-0.292816162109375,7.02623398226046,-1.66961669921875E-08,-0.292449951171875,1,38,2.20064595341682E-08,-4.86866682767868E-08,100 nA
-0.295257568359375,7.05064798219883,-1.73187255859375E-08,-0.29486083984375,1,39,2.20064595341682E-08,-4.86866682767868E-08,100 nA
-0.297698974609375,7.07506198213719,-1.812744140625E-08,-0.297332763671875,1,40,2.20064595341682E-08,-4.86866682767868E-08,100 nA
-0.300140380859375,7.09947598207555,-1.876220703125E-08,-0.299713134765625,1,41,2.20064595341682E-08,-4.86866682767868E-08,100 nA
-0.302581787109375,7.12388998201391,-1.92352294921875E-08,-0.302154541015625,1,42,2.20064595341682E-08,-4.86866682767868E-08,100 nA
-0.305023193359375,7.14830398195227,-1.943359375E-08,-0.304656982421875,1,43,2.20064595341682E-08,-4.86866682767868E-08,100 nA
-0.307464599609375,7.17271798189063,-1.94549560546875E-08,-0.30706787109375,1,44,2.20064595341682E-08,-4.86866682767868E-08,100 nA
-0.309906005859375,7.19713198182899,-1.9537353515625E-08,-0.309539794921875,1,45,2.20064595341682E-08,-4.86866682767868E-08,100 nA
-0.312347412109375,7.22154598176735,-1.94976806640625E-08,-0.311981201171875,1,46,2.20064595341682E-08,-4.86866682767868E-08,100 nA
-0.314788818359375,7.24595998170571,-1.9140625E-08,-0.314453125,1,47,2.20064595341682E-08,-4.86866682767868E-08,100 nA
-0.317230224609375,7.27037398164407,-1.87774658203125E-08,-0.316925048828125,1,48,2.20064595341682E-08,-4.86866682767868E-08,100 nA
-0.319671630859375,7.29478798158243,-1.8524169921875E-08,-0.3193359375,1,49,2.20064595341682E-08,-4.86866682767868E-08,100 nA
-0.322113037109375,7.31920198152079,-1.78741455078125E-08,-0.321746826171875,1,50,2.20064595341682E-08,-4.86866682767868E-08,100 nA
-0.324554443359375,7.34361598145915,-1.768798828125E-08,-0.324249267578125,1,51,2.20064595341682E-08,-4.86866682767868E-08,100 nA
-0.326995849609375,7.36802998139751,-1.69647216796875E-08,-0.326568603515625,1,52,2.20064595341682E-08,-4.86866682767868E-08,100 nA
-0.329437255859375,7.39244398133587,-1.63299560546875E-08,-0.3291015625,1,53,2.20064595341682E-08,-4.86866682767868E-08,100 nA
-0.331878662109375,7.41685798127423,-1.5875244140625E-08,-0.33154296875,1,54,2.20064595341682E-08,-4.86866682767868E-08,100 nA
-0.334320068359375,7.44127198121259,-1.5386962890625E-08,-0.333984375,1,55,2.20064595341682E-08,-4.86866682767868E-08,100 nA
-0.336761474609375,7.46568598115095,-1.48040771484375E-08,-0.33642578125,1,56,2.20064595341682E-08,-4.86866682767868E-08,100 nA
-0.339202880859375,7.49009998108932,-1.43524169921875E-08,-0.3388671875,1,57,2.20064595341682E-08,-4.86866682767868E-08,100 nA
-0.341644287109375,7.51451398102768,-1.3934326171875E-08,-0.34130859375,1,58,2.20064595341682E-08,-4.86866682767868E-08,100 nA
-0.344085693359375,7.53892798096604,-1.3525390625E-08,-0.343719482421875,1,59,2.20064595341682E-08,-4.86866682767868E-08,100 nA
-0.346527099609375,7.5633419809044,-1.326904296875E-08,-0.34619140625,1,60,2.20064595341682E-08,-4.86866682767868E-08,100 nA
-0.348968505859375,7.58775598084276,-1.2847900390625E-08,-0.3486328125,1,61,2.20064595341682E-08,-4.86866682767868E-08,100 nA
-0.351409912109375,7.61216998078112,-1.24298095703125E-08,-0.351043701171875,1,62,2.20064595341682E-08,-4.86866682767868E-08,100 nA
-0.353851318359375,7.63658398071948,-1.2176513671875E-08,-0.353485107421875,1,63,2.20064595341682E-08,-4.86866682767868E-08,100 nA
-0.356292724609375,7.66099798065784,-1.1676025390625E-08,-0.35595703125,1,64,2.20064595341682E-08,-4.86866682767868E-08,100 nA
-0.358734130859375,7.6854119805962,-1.1431884765625E-08,-0.358367919921875,1,65,2.20064595341682E-08,-4.86866682767868E-08,100 nA
-0.361175537109375,7.70982598053456,-1.1334228515625E-08,-0.36083984375,1,66,2.20064595341682E-08,-4.86866682767868E-08,100 nA
-0.363616943359375,7.73423998047292,-1.10870361328125E-08,-0.363189697265625,1,67,2.20064595341682E-08,-4.86866682767868E-08,100 nA
-0.366058349609375,7.75865398041128,-1.0894775390625E-08,-0.36566162109375,1,68,2.20064595341682E-08,-4.86866682767868E-08,100 nA
-0.368499755859375,7.78306798034964,-1.07147216796875E-08,-0.368072509765625,1,69,2.20064595341682E-08,-4.86866682767868E-08,100 nA
-0.370941162109375,7.807481980288,-1.05865478515625E-08,-0.370513916015625,1,70,2.20064595341682E-08,-4.86866682767868E-08,100 nA
-0.373382568359375,7.83189598022636,-1.03302001953125E-08,-0.373077392578125,1,71,2.20064595341682E-08,-4.86866682767868E-08,100 nA
-0.375823974609375,7.85630998016472,-1.0400390625E-08,-0.375457763671875,1,72,2.20064595341682E-08,-4.86866682767868E-08,100 nA
-0.378265380859375,7.88072398010308,-1.0015869140625E-08,-0.377838134765625,1,73,2.20064595341682E-08,-4.86866682767868E-08,100 nA
-0.380706787109375,7.90513798004145,-9.9151611328125E-09,-0.380340576171875,1,74,2.20064595341682E-08,-4.86866682767868E-08,100 nA
-0.383148193359375,7.92955197997981,-9.698486328125E-09,-0.382720947265625,1,75,2.20064595341682E-08,-4.86866682767868E-08,100 nA
-0.385589599609375,7.95396597991817,-9.600830078125E-09,-0.38519287109375,1,76,2.20064595341682E-08,-4.86866682767868E-08,100 nA
-0.388031005859375,7.97837997985653,-9.5672607421875E-09,-0.387603759765625,1,77,2.20064595341682E-08,-4.86866682767868E-08,100 nA
-0.390472412109375,8.00279397979489,-9.393310546875E-09,-0.39007568359375,1,78,2.20064595341682E-08,-4.86866682767868E-08,100 nA
-0.392913818359375,8.02720797973325,-9.521484375E-09,-0.392547607421875,1,79,2.20064595341682E-08,-4.86866682767868E-08,100 nA
-0.395355224609375,8.05162197967161,-9.4757080078125E-09,-0.394927978515625,1,80,2.20064595341682E-08,-4.86866682767868E-08,100 nA
-0.397796630859375,8.07603597960997,-9.36279296875E-09,-0.397430419921875,1,81,2.20064595341682E-08,-4.86866682767868E-08,100 nA
-0.400238037109375,8.10044997954833,-9.490966796875E-09,-0.39984130859375,1,82,2.20064595341682E-08,-4.86866682767868E-08,100 nA
-0.402679443359375,8.12486397948669,-9.466552734375E-09,-0.402313232421875,1,83,2.20064595341682E-08,-4.86866682767868E-08,100 nA
-0.405120849609375,8.14927797942505,-9.228515625E-09,-0.4046630859375,1,84,2.20064595341682E-08,-4.86866682767868E-08,100 nA
-0.407562255859375,8.17369197936341,-9.2987060546875E-09,-0.407135009765625,1,85,2.20064595341682E-08,-4.86866682767868E-08,100 nA
-0.410003662109375,8.19810597930177,-9.4329833984375E-09,-0.40960693359375,1,86,2.20064595341682E-08,-4.86866682767868E-08,100 nA
-0.412445068359375,8.22251997924013,-9.2987060546875E-09,-0.412078857421875,1,87,2.20064595341682E-08,-4.86866682767868E-08,100 nA
-0.414886474609375,8.24693397917849,-9.2376708984375E-09,-0.414520263671875,1,88,2.20064595341682E-08,-4.86866682767868E-08,100 nA
-0.417327880859375,8.27134797911685,-9.332275390625E-09,-0.416900634765625,1,89,2.20064595341682E-08,-4.86866682767868E-08,100 nA
-0.419769287109375,8.29576197905521,-9.3231201171875E-09,-0.419342041015625,1,90,2.20064595341682E-08,-4.86866682767868E-08,100 nA
-0.422210693359375,8.32017597899358,-9.3170166015625E-09,-0.421783447265625,1,91,2.20064595341682E-08,-4.86866682767868E-08,100 nA
-0.424652099609375,8.34458997893194,-9.539794921875E-09,-0.4241943359375,1,92,2.20064595341682E-08,-4.86866682767868E-08,100 nA
-0.427093505859375,8.3690039788703,-9.405517578125E-09,-0.426666259765625,1,93,2.20064595341682E-08,-4.86866682767868E-08,100 nA
-0.429534912109375,8.39341797880866,-9.4635009765625E-09,-0.4290771484375,1,94,2.20064595341682E-08,-4.86866682767868E-08,100 nA
-0.431976318359375,8.41783197874702,-9.6588134765625E-09,-0.431549072265625,1,95,2.20064595341682E-08,-4.86866682767868E-08,100 nA
-0.434417724609375,8.44224597868538,-9.649658203125E-09,-0.4339599609375,1,96,2.20064595341682E-08,-4.86866682767868E-08,100 nA
-0.436859130859375,8.46665997862374,-9.5947265625E-09,-0.436431884765625,1,97,2.20064595341682E-08,-4.86866682767868E-08,100 nA
-0.439300537109375,8.4910739785621,-9.6710205078125E-09,-0.43896484375,1,98,2.20064595341682E-08,-4.86866682767868E-08,100 nA
-0.441741943359375,8.51548797850046,-9.9090576171875E-09,-0.4412841796875,1,99,2.20064595341682E-08,-4.86866682767868E-08,100 nA
-0.444183349609375,8.53990197843882,-1.00921630859375E-08,-0.443756103515625,1,100,2.20064595341682E-08,-4.86866682767868E-08,100 nA
-0.446624755859375,8.56431597837718,-1.00189208984375E-08,-0.446197509765625,1,101,2.20064595341682E-08,-4.86866682767868E-08,100 nA
-0.449066162109375,8.58872997831554,-1.01470947265625E-08,-0.448577880859375,1,102,2.20064595341682E-08,-4.86866682767868E-08,100 nA
-0.451507568359375,8.6131439782539,-1.01806640625E-08,-0.451080322265625,1,103,2.20064595341682E-08,-4.86866682767868E-08,100 nA
-0.453948974609375,8.63755797819226,-1.024169921875E-08,-0.4534912109375,1,104,2.20064595341682E-08,-4.86866682767868E-08,100 nA
-0.456390380859375,8.66197197813062,-1.0443115234375E-08,-0.455902099609375,1,105,2.20064595341682E-08,-4.86866682767868E-08,100 nA
-0.458831787109375,8.68638597806898,-1.03607177734375E-08,-0.458404541015625,1,106,2.20064595341682E-08,-4.86866682767868E-08,100 nA
-0.461273193359375,8.71079997800734,-1.06231689453125E-08,-0.4608154296875,1,107,2.20064595341682E-08,-4.86866682767868E-08,100 nA
-0.463714599609375,8.7352139779457,-1.05224609375E-08,-0.463287353515625,1,108,2.20064595341682E-08,-4.86866682767868E-08,100 nA
-0.466156005859375,8.75962797788407,-1.1016845703125E-08,-0.4656982421875,1,109,2.20064595341682E-08,-4.86866682767868E-08,100 nA
-0.468597412109375,8.78404197782243,-1.12335205078125E-08,-0.468170166015625,1,110,2.20064595341682E-08,-4.86866682767868E-08,100 nA
-0.471038818359375,8.80845597776079,-1.11083984375E-08,-0.4705810546875,1,111,2.20064595341682E-08,-4.86866682767868E-08,100 nA
-0.473480224609375,8.83286997769915,-1.1279296875E-08,-0.4730224609375,1,112,2.20064595341682E-08,-4.86866682767868E-08,100 nA
-0.475921630859375,8.85728397763751,-1.13861083984375E-08,-0.475433349609375,1,113,2.20064595341682E-08,-4.86866682767868E-08,100 nA
-0.478363037109375,8.88169797757587,-1.153564453125E-08,-0.4779052734375,1,114,2.20064595341682E-08,-4.86866682767868E-08,100 nA
-0.480804443359375,8.90611197751423,-1.18438720703125E-08,-0.48028564453125,1,115,2.20064595341682E-08,-4.86866682767868E-08,100 nA
-0.483245849609375,8.93052597745259,-1.19476318359375E-08,-0.482818603515625,1,116,2.20064595341682E-08,-4.86866682767868E-08,100 nA
-0.485687255859375,8.95493997739095,-1.21185302734375E-08,-0.4852294921875,1,117,2.20064595341682E-08,-4.86866682767868E-08,100 nA
-0.488128662109375,8.97935397732931,-1.243896484375E-08,-0.48760986328125,1,118,2.20064595341682E-08,-4.86866682767868E-08,100 nA
-0.490570068359375,9.00376797726767,-1.2554931640625E-08,-0.4901123046875,1,119,2.20064595341682E-08,-4.86866682767868E-08,100 nA
-0.493011474609375,9.02818197720603,-1.2591552734375E-08,-0.4925537109375,1,120,2.20064595341682E-08,-4.86866682767868E-08,100 nA
-0.495452880859375,9.05259597714439,-1.29119873046875E-08,-0.494964599609375,1,121,2.20064595341682E-08,-4.86866682767868E-08,100 nA
-0.497894287109375,9.07700997708275,-1.30340576171875E-08,-0.497406005859375,1,122,2.20064595341682E-08,-4.86866682767868E-08,100 nA
-0.500335693359375,9.10142397702111,-1.34033203125E-08,-0.499847412109375,1,123,2.20064595341682E-08,-4.86866682767868E-08,100 nA
-0.502777099609375,9.12583797695947,-1.36077880859375E-08,-0.50225830078125,1,124,2.20064595341682E-08,-4.86866682767868E-08,100 nA
-0.505218505859375,9.15025197689783,-1.37176513671875E-08,-0.50469970703125,1,125,2.20064595341682E-08,-4.86866682767868E-08,100 nA
-0.507659912109375,9.1746659768362,-1.400146484375E-08,-0.50714111328125,1,126,2.20064595341682E-08,-4.86866682767868E-08,100 nA
-0.510101318359375,9.19907997677456,-1.41265869140625E-08,-0.50958251953125,1,127,2.20064595341682E-08,-4.86866682767868E-08,100 nA
-0.512542724609375,9.22349397671292,-1.451416015625E-08,-0.512054443359375,1,128,2.20064595341682E-08,-4.86866682767868E-08,100 nA
-0.514984130859375,9.24790797665128,-1.43951416015625E-08,-0.51446533203125,1,129,2.20064595341682E-08,-4.86866682767868E-08,100 nA
-0.517425537109375,9.27232197658964,-1.49078369140625E-08,-0.516876220703125,1,130,2.20064595341682E-08,-4.86866682767868E-08,100 nA
-0.519866943359375,9.296735976528,-1.50848388671875E-08,-0.519317626953125,1,131,2.20064595341682E-08,-4.86866682767868E-08,100 nA
-0.522308349609375,9.32114997646636,-1.52130126953125E-08,-0.521759033203125,1,132,2.20064595341682E-08,-4.86866682767868E-08,100 nA
-0.524749755859375,9.34556397640472,-1.556396484375E-08,-0.524200439453125,1,133,2.20064595341682E-08,-4.86866682767868E-08,100 nA
-0.527191162109375,9.36997797634308,-1.57623291015625E-08,-0.52667236328125,1,134,2.20064595341682E-08,-4.86866682767868E-08,100 nA
-0.529632568359375,9.39439197628144,-1.6107177734375E-08,-0.52911376953125,1,135,2.20064595341682E-08,-4.86866682767868E-08,100 nA
-0.532073974609375,9.4188059762198,-1.60400390625E-08,-0.531524658203125,1,136,2.20064595341682E-08,-4.86866682767868E-08,100 nA
-0.534515380859375,9.44321997615816,-1.66595458984375E-08,-0.533966064453125,1,137,2.20064595341682E-08,-4.86866682767868E-08,100 nA
-0.536956787109375,9.46763397609652,-1.68182373046875E-08,-0.536468505859375,1,138,2.20064595341682E-08,-4.86866682767868E-08,100 nA
-0.539398193359375,9.49204797603488,-1.722412109375E-08,-0.538848876953125,1,139,2.20064595341682E-08,-4.86866682767868E-08,100 nA
-0.541839599609375,9.51646197597324,-1.7279052734375E-08,-0.54132080078125,1,140,2.20064595341682E-08,-4.86866682767868E-08,100 nA
-0.544281005859375,9.5408759759116,-1.79718017578125E-08,-0.543731689453125,1,141,2.20064595341682E-08,-4.86866682767868E-08,100 nA
-0.546722412109375,9.56528997584996,-1.80389404296875E-08,-0.546173095703125,1,142,2.20064595341682E-08,-4.86866682767868E-08,100 nA
-0.549163818359375,9.58970397578832,-1.8487548828125E-08,-0.548675537109375,1,143,2.20064595341682E-08,-4.86866682767868E-08,100 nA
-0.551605224609375,9.61411797572669,-1.87408447265625E-08,-0.55108642578125,1,144,2.20064595341682E-08,-4.86866682767868E-08,100 nA
-0.549163818359375,9.63853197566505,-1.70379638671875E-08,-0.548614501953125,1,145,2.20064595341682E-08,-4.86866682767868E-08,100 nA
-0.546722412109375,9.66294597560341,-1.60614013671875E-08,-0.546173095703125,1,146,2.20064595341682E-08,-4.86866682767868E-08,100 nA
-0.544281005859375,9.68735997554177,-1.5142822265625E-08,-0.54376220703125,1,147,2.20064595341682E-08,-4.86866682767868E-08,100 nA
-0.541839599609375,9.71177397548013,-1.44287109375E-08,-0.541290283203125,1,148,2.20064595341682E-08,-4.86866682767868E-08,100 nA
-0.539398193359375,9.73618797541849,-1.35711669921875E-08,-0.53887939453125,1,149,2.20064595341682E-08,-4.86866682767868E-08,100 nA
-0.536956787109375,9.76060197535685,-1.3189697265625E-08,-0.53643798828125,1,150,2.20064595341682E-08,-4.86866682767868E-08,100 nA
-0.534515380859375,9.78501597529521,-1.2506103515625E-08,-0.533966064453125,1,151,2.20064595341682E-08,-4.86866682767868E-08,100 nA
-0.532073974609375,9.80942997523357,-1.2115478515625E-08,-0.531524658203125,1,152,2.20064595341682E-08,-4.86866682767868E-08,100 nA
-0.529632568359375,9.83384397517193,-1.1614990234375E-08,-0.5291748046875,1,153,2.20064595341682E-08,-4.86866682767868E-08,100 nA
-0.527191162109375,9.85825797511029,-1.09893798828125E-08,-0.52667236328125,1,154,2.20064595341682E-08,-4.86866682767868E-08,100 nA
-0.524749755859375,9.88267197504865,-1.07421875E-08,-0.524169921875,1,155,2.20064595341682E-08,-4.86866682767868E-08,100 nA
-0.522308349609375,9.90708597498701,-1.025390625E-08,-0.5218505859375,1,156,2.20064595341682E-08,-4.86866682767868E-08,100 nA
-0.519866943359375,9.93149997492537,-9.87548828125E-09,-0.519317626953125,1,157,2.20064595341682E-08,-4.86866682767868E-08,100 nA
-0.517425537109375,9.95591397486373,-9.6221923828125E-09,-0.516876220703125,1,158,2.20064595341682E-08,-4.86866682767868E-08,100 nA
-0.514984130859375,9.98032797480209,-9.381103515625E-09,-0.514434814453125,1,159,2.20064595341682E-08,-4.86866682767868E-08,100 nA
-0.512542724609375,10.0047419747405,-8.80126953125E-09,-0.51202392578125,1,160,2.20064595341682E-08,-4.86866682767868E-08,100 nA
-0.510101318359375,10.0291559746788,-8.36181640625E-09,-0.509552001953125,1,161,2.20064595341682E-08,-4.86866682767868E-08,100 nA
-0.507659912109375,10.0535699746172,-8.209228515625E-09,-0.507171630859375,1,162,2.20064595341682E-08,-4.86866682767868E-08,100 nA
-0.505218505859375,10.0779839745555,-7.965087890625E-09,-0.50469970703125,1,163,2.20064595341682E-08,-4.86866682767868E-08,100 nA
-0.502777099609375,10.1023979744939,-7.476806640625E-09,-0.502227783203125,1,164,2.20064595341682E-08,-4.86866682767868E-08,100 nA
-0.500335693359375,10.1268119744323,-7.305908203125E-09,-0.499786376953125,1,165,2.20064595341682E-08,-4.86866682767868E-08,100 nA
-0.497894287109375,10.1512259743706,-6.829833984375E-09,-0.4974365234375,1,166,2.20064595341682E-08,-4.86866682767868E-08,100 nA
-0.495452880859375,10.175639974309,-6.683349609375E-09,-0.49493408203125,1,167,2.20064595341682E-08,-4.86866682767868E-08,100 nA
-0.493011474609375,10.2000539742473,-6.4239501953125E-09,-0.492523193359375,1,168,2.20064595341682E-08,-4.86866682767868E-08,100 nA
-0.490570068359375,10.2244679741857,-6.2042236328125E-09,-0.4901123046875,1,169,2.20064595341682E-08,-4.86866682767868E-08,100 nA
-0.488128662109375,10.2488819741241,-5.877685546875E-09,-0.487640380859375,1,170,2.20064595341682E-08,-4.86866682767868E-08,100 nA
-0.485687255859375,10.2732959740624,-5.76171875E-09,-0.485198974609375,1,171,2.20064595341682E-08,-4.86866682767868E-08,100 nA
-0.483245849609375,10.2977099740008,-5.4046630859375E-09,-0.482818603515625,1,172,2.20064595341682E-08,-4.86866682767868E-08,100 nA
-0.480804443359375,10.3221239739391,-5.0811767578125E-09,-0.4803466796875,1,173,2.20064595341682E-08,-4.86866682767868E-08,100 nA
-0.478363037109375,10.3465379738775,-4.7637939453125E-09,-0.47784423828125,1,174,2.20064595341682E-08,-4.86866682767868E-08,100 nA
-0.475921630859375,10.3709519738159,-4.681396484375E-09,-0.4754638671875,1,175,2.20064595341682E-08,-4.86866682767868E-08,100 nA
-0.473480224609375,10.3953659737542,-4.4219970703125E-09,-0.4730224609375,1,176,2.20064595341682E-08,-4.86866682767868E-08,100 nA
-0.471038818359375,10.4197799736926,-4.205322265625E-09,-0.47064208984375,1,177,2.20064595341682E-08,-4.86866682767868E-08,100 nA
-0.468597412109375,10.4441939736309,-4.107666015625E-09,-0.4681396484375,1,178,2.20064595341682E-08,-4.86866682767868E-08,100 nA
-0.466156005859375,10.4686079735693,-3.7872314453125E-09,-0.4656982421875,1,179,2.20064595341682E-08,-4.86866682767868E-08,100 nA
-0.463714599609375,10.4930219735077,-3.6468505859375E-09,-0.4632568359375,1,180,2.20064595341682E-08,-4.86866682767868E-08,100 nA
-0.461273193359375,10.517435973446,-3.3477783203125E-09,-0.460845947265625,1,181,2.20064595341682E-08,-4.86866682767868E-08,100 nA
-0.458831787109375,10.5418499733844,-3.411865234375E-09,-0.458404541015625,1,182,2.20064595341682E-08,-4.86866682767868E-08,100 nA
-0.456390380859375,10.5662639733227,-3.131103515625E-09,-0.45599365234375,1,183,2.20064595341682E-08,-4.86866682767868E-08,100 nA
-0.453948974609375,10.5906779732611,-2.8350830078125E-09,-0.4534912109375,1,184,2.20064595341682E-08,-4.86866682767868E-08,100 nA
-0.451507568359375,10.6150919731995,-2.685546875E-09,-0.451080322265625,1,185,2.20064595341682E-08,-4.86866682767868E-08,100 nA
-0.449066162109375,10.6395059731378,-2.5421142578125E-09,-0.44866943359375,1,186,2.20064595341682E-08,-4.86866682767868E-08,100 nA
-0.446624755859375,10.6639199730762,-2.3406982421875E-09,-0.446136474609375,1,187,2.20064595341682E-08,-4.86866682767868E-08,100 nA
-0.444183349609375,10.6883339730146,-2.252197265625E-09,-0.443756103515625,1,188,2.20064595341682E-08,-4.86866682767868E-08,100 nA
-0.441741943359375,10.7127479729529,-1.9775390625E-09,-0.44134521484375,1,189,2.20064595341682E-08,-4.86866682767868E-08,100 nA
-0.439300537109375,10.7371619728913,-1.61468505859375E-09,-0.438873291015625,1,190,2.20064595341682E-08,-4.86866682767868E-08,100 nA
-0.436859130859375,10.7615759728296,-1.69647216796875E-09,-0.436431884765625,1,191,2.20064595341682E-08,-4.86866682767868E-08,100 nA
-0.434417724609375,10.785989972768,-1.4703369140625E-09,-0.4339599609375,1,192,2.20064595341682E-08,-4.86866682767868E-08,100 nA
-0.431976318359375,10.8104039727064,-1.57318115234375E-09,-0.4315185546875,1,193,2.20064595341682E-08,-4.86866682767868E-08,100 nA
-0.429534912109375,10.8348179726447,-1.3336181640625E-09,-0.42913818359375,1,194,2.20064595341682E-08,-4.86866682767868E-08,100 nA
-0.427093505859375,10.8592319725831,-1.1444091796875E-09,-0.426666259765625,1,195,2.20064595341682E-08,-4.86866682767868E-08,100 nA
-0.424652099609375,10.8836459725214,-1.080322265625E-09,-0.424224853515625,1,196,2.20064595341682E-08,-4.86866682767868E-08,100 nA
-0.422210693359375,10.9080599724598,-8.56628417968749E-10,-0.4217529296875,1,197,2.20064595341682E-08,-4.86866682767868E-08,100 nA
-0.419769287109375,10.9324739723982,-6.8389892578125E-10,-0.419342041015625,1,198,2.20064595341682E-08,-4.86866682767868E-08,100 nA
-0.417327880859375,10.9568879723365,-4.61425781249999E-10,-0.41693115234375,1,199,2.20064595341682E-08,-4.86866682767868E-08,100 nA
-0.414886474609375,10.9813019722749,-3.8604736328125E-10,-0.414459228515625,1,200,2.20064595341682E-08,-4.86866682767868E-08,100 nA
-0.412445068359375,11.0057159722132,-4.2236328125E-10,-0.412078857421875,1,201,2.20064595341682E-08,-4.86866682767868E-08,100 nA
-0.410003662109375,11.0301299721516,-1.708984375E-10,-0.40960693359375,1,202,2.20064595341682E-08,-4.86866682767868E-08,100 nA
-0.407562255859375,11.05454397209,-3.5400390625E-10,-0.407135009765625,1,203,2.20064595341682E-08,-4.86866682767868E-08,100 nA
-0.405120849609375,11.0789579720283,-9.85717773437506E-11,-0.404693603515625,1,204,2.20064595341682E-08,-4.86866682767868E-08,100 nA
-0.402679443359375,11.1033719719667,2.2705078125E-10,-0.40228271484375,1,205,2.20064595341682E-08,-4.86866682767868E-08,100 nA
-0.400238037109375,11.127785971905,7.72094726562506E-11,-0.39990234375,1,206,2.20064595341682E-08,-4.86866682767868E-08,100 nA
-0.397796630859375,11.1521999718434,2.18505859375E-10,-0.397369384765625,1,207,2.20064595341682E-08,-4.86866682767868E-08,100 nA
-0.395355224609375,11.1766139717818,2.00500488281249E-10,-0.394989013671875,1,208,2.20064595341682E-08,-4.86866682767868E-08,100 nA
-0.392913818359375,11.2010279717201,4.8797607421875E-10,-0.39251708984375,1,209,2.20064595341682E-08,-4.86866682767868E-08,100 nA
-0.390472412109375,11.2254419716585,6.3629150390625E-10,-0.390106201171875,1,210,2.20064595341682E-08,-4.86866682767868E-08,100 nA
-0.388031005859375,11.2498559715968,7.5103759765625E-10,-0.38763427734375,1,211,2.20064595341682E-08,-4.86866682767868E-08,100 nA
-0.385589599609375,11.2742699715352,7.4493408203125E-10,-0.385284423828125,1,212,2.20064595341682E-08,-4.86866682767868E-08,100 nA
-0.383148193359375,11.2986839714736,6.18896484375E-10,-0.38275146484375,1,213,2.20064595341682E-08,-4.86866682767868E-08,100 nA
-0.380706787109375,11.3230979714119,1.0137939453125E-09,-0.38031005859375,1,214,2.20064595341682E-08,-4.86866682767868E-08,100 nA
-0.378265380859375,11.3475119713503,1.043701171875E-09,-0.377838134765625,1,215,2.20064595341682E-08,-4.86866682767868E-08,100 nA
-0.375823974609375,11.3719259712886,9.66491699218749E-10,-0.375457763671875,1,216,2.20064595341682E-08,-4.86866682767868E-08,100 nA
-0.373382568359375,11.396339971227,1.32781982421875E-09,-0.373077392578125,1,217,2.20064595341682E-08,-4.86866682767868E-08,100 nA
-0.370941162109375,11.4207539711654,1.24786376953125E-09,-0.370513916015625,1,218,2.20064595341682E-08,-4.86866682767868E-08,100 nA
-0.368499755859375,11.4451679711037,1.2579345703125E-09,-0.368133544921875,1,219,2.20064595341682E-08,-4.86866682767868E-08,100 nA
-0.366058349609375,11.4695819710421,1.38885498046875E-09,-0.36572265625,1,220,2.20064595341682E-08,-4.86866682767868E-08,100 nA
-0.363616943359375,11.4939959709805,1.373291015625E-09,-0.363189697265625,1,221,2.20064595341682E-08,-4.86866682767868E-08,100 nA
-0.361175537109375,11.5184099709188,1.8096923828125E-09,-0.36077880859375,1,222,2.20064595341682E-08,-4.86866682767868E-08,100 nA
-0.358734130859375,11.5428239708572,1.8798828125E-09,-0.3583984375,1,223,2.20064595341682E-08,-4.86866682767868E-08,100 nA
-0.356292724609375,11.5672379707955,1.72821044921875E-09,-0.355926513671875,1,224,2.20064595341682E-08,-4.86866682767868E-08,100 nA
-0.353851318359375,11.5916519707339,1.89208984375E-09,-0.353485107421875,1,225,2.20064595341682E-08,-4.86866682767868E-08,100 nA
-0.351409912109375,11.6160659706723,2.3040771484375E-09,-0.35101318359375,1,226,2.20064595341682E-08,-4.86866682767868E-08,100 nA
-0.348968505859375,11.6404799706106,2.4322509765625E-09,-0.3486328125,1,227,2.20064595341682E-08,-4.86866682767868E-08,100 nA
-0.346527099609375,11.664893970549,2.7740478515625E-09,-0.346160888671875,1,228,2.20064595341682E-08,-4.86866682767868E-08,100 nA
-0.344085693359375,11.6893079704873,2.83203125E-09,-0.34381103515625,1,229,2.20064595341682E-08,-4.86866682767868E-08,100 nA
-0.341644287109375,11.7137219704257,3.0914306640625E-09,-0.34130859375,1,230,2.20064595341682E-08,-4.86866682767868E-08,100 nA
-0.339202880859375,11.7381359703641,3.2989501953125E-09,-0.3388671875,1,231,2.20064595341682E-08,-4.86866682767868E-08,100 nA
-0.336761474609375,11.7625499703024,3.717041015625E-09,-0.33648681640625,1,232,2.20064595341682E-08,-4.86866682767868E-08,100 nA
-0.334320068359375,11.7869639702408,4.083251953125E-09,-0.33404541015625,1,233,2.20064595341682E-08,-4.86866682767868E-08,100 nA
-0.331878662109375,11.8113779701791,4.2999267578125E-09,-0.33160400390625,1,234,2.20064595341682E-08,-4.86866682767868E-08,100 nA
-0.329437255859375,11.8357919701175,4.7882080078125E-09,-0.3291015625,1,235,2.20064595341682E-08,-4.86866682767868E-08,100 nA
-0.326995849609375,11.8602059700559,5.2032470703125E-09,-0.326629638671875,1,236,2.20064595341682E-08,-4.86866682767868E-08,100 nA
-0.324554443359375,11.8846199699942,5.810546875E-09,-0.324188232421875,1,237,2.20064595341682E-08,-4.86866682767868E-08,100 nA
-0.322113037109375,11.9090339699326,6.4697265625E-09,-0.32177734375,1,238,2.20064595341682E-08,-4.86866682767868E-08,100 nA
-0.319671630859375,11.9334479698709,7.2906494140625E-09,-0.3193359375,1,239,2.20064595341682E-08,-4.86866682767868E-08,100 nA
-0.317230224609375,11.9578619698093,7.928466796875E-09,-0.316925048828125,1,240,2.20064595341682E-08,-4.86866682767868E-08,100 nA
-0.314788818359375,11.9822759697477,8.9874267578125E-09,-0.314453125,1,241,2.20064595341682E-08,-4.86866682767868E-08,100 nA
-0.312347412109375,12.006689969686,9.7869873046875E-09,-0.31207275390625,1,242,2.20064595341682E-08,-4.86866682767868E-08,100 nA
-0.309906005859375,12.0311039696244,1.09619140625E-08,-0.309600830078125,1,243,2.20064595341682E-08,-4.86866682767868E-08,100 nA
-0.307464599609375,12.0555179695627,1.17218017578125E-08,-0.307159423828125,1,244,2.20064595341682E-08,-4.86866682767868E-08,100 nA
-0.305023193359375,12.0799319695011,1.29486083984375E-08,-0.3046875,1,245,2.20064595341682E-08,-4.86866682767868E-08,100 nA
-0.302581787109375,12.1043459694395,1.41021728515625E-08,-0.302276611328125,1,246,2.20064595341682E-08,-4.86866682767868E-08,100 nA
-0.300140380859375,12.1287599693778,1.4935302734375E-08,-0.2998046875,1,247,2.20064595341682E-08,-4.86866682767868E-08,100 nA
-0.297698974609375,12.1531739693162,1.54571533203125E-08,-0.29736328125,1,248,2.20064595341682E-08,-4.86866682767868E-08,100 nA
-0.295257568359375,12.1775879692545,1.64154052734375E-08,-0.294921875,1,249,2.20064595341682E-08,-4.86866682767868E-08,100 nA
-0.292816162109375,12.2020019691929,1.68701171875E-08,-0.292510986328125,1,250,2.20064595341682E-08,-4.86866682767868E-08,100 nA
-0.290374755859375,12.2264159691313,1.72576904296875E-08,-0.290008544921875,1,251,2.20064595341682E-08,-4.86866682767868E-08,100 nA
-0.287933349609375,12.2508299690696,1.78924560546875E-08,-0.287628173828125,1,252,2.20064595341682E-08,-4.86866682767868E-08,100 nA
-0.285491943359375,12.275243969008,1.78985595703125E-08,-0.285186767578125,1,253,2.20064595341682E-08,-4.86866682767868E-08,100 nA
-0.283050537109375,12.2996579689463,1.78558349609375E-08,-0.28277587890625,1,254,2.20064595341682E-08,-4.86866682767868E-08,100 nA
-0.280609130859375,12.3240719688847,1.7584228515625E-08,-0.280303955078125,1,255,2.20064595341682E-08,-4.86866682767868E-08,100 nA
-0.278167724609375,12.3484859688231,1.73492431640625E-08,-0.27789306640625,1,256,2.20064595341682E-08,-4.86866682767868E-08,100 nA
-0.275726318359375,12.3728999687614,1.689453125E-08,-0.275390625,1,257,2.20064595341682E-08,-4.86866682767868E-08,100 nA
-0.273284912109375,12.3973139686998,1.669921875E-08,-0.273040771484375,1,258,2.20064595341682E-08,-4.86866682767868E-08,100 nA
-0.270843505859375,12.4217279686382,1.5997314453125E-08,-0.27056884765625,1,259,2.20064595341682E-08,-4.86866682767868E-08,100 nA
-0.268402099609375,12.4461419685765,1.54815673828125E-08,-0.26806640625,1,260,2.20064595341682E-08,-4.86866682767868E-08,100 nA
-0.265960693359375,12.4705559685149,1.49322509765625E-08,-0.265625,1,261,2.20064595341682E-08,-4.86866682767868E-08,100 nA
-0.263519287109375,12.4949699684532,1.41082763671875E-08,-0.263214111328125,1,262,2.20064595341682E-08,-4.86866682767868E-08,100 nA
-0.261077880859375,12.5193839683916,1.37664794921875E-08,-0.26080322265625,1,263,2.20064595341682E-08,-4.86866682767868E-08,100 nA
-0.258636474609375,12.54379796833,1.2939453125E-08,-0.258331298828125,1,264,2.20064595341682E-08,-4.86866682767868E-08,100 nA
-0.256195068359375,12.5682119682683,1.26861572265625E-08,-0.255950927734375,1,265,2.20064595341682E-08,-4.86866682767868E-08,100 nA
-0.253753662109375,12.5926259682067,1.18316650390625E-08,-0.253448486328125,1,266,2.20064595341682E-08,-4.86866682767868E-08,100 nA
-0.251312255859375,12.617039968145,1.16607666015625E-08,-0.251068115234375,1,267,2.20064595341682E-08,-4.86866682767868E-08,100 nA
-0.248870849609375,12.6414539680834,1.12640380859375E-08,-0.248565673828125,1,268,2.20064595341682E-08,-4.86866682767868E-08,100 nA
-0.246429443359375,12.6658679680218,1.06048583984375E-08,-0.24615478515625,1,269,2.20064595341682E-08,-4.86866682767868E-08,100 nA
-0.243988037109375,12.6902819679601,1.014404296875E-08,-0.24371337890625,1,270,2.20064595341682E-08,-4.86866682767868E-08,100 nA
-0.241546630859375,12.7146959678985,9.9700927734375E-09,-0.2412109375,1,271,2.20064595341682E-08,-4.86866682767868E-08,100 nA
-0.239105224609375,12.7391099678368,9.5428466796875E-09,-0.238800048828125,1,272,2.20064595341682E-08,-4.86866682767868E-08,100 nA
-0.236663818359375,12.7635239677752,9.1949462890625E-09,-0.23638916015625,1,273,2.20064595341682E-08,-4.86866682767868E-08,100 nA
-0.234222412109375,12.7879379677136,9.09423828125E-09,-0.23388671875,1,274,2.20064595341682E-08,-4.86866682767868E-08,100 nA
-0.231781005859375,12.8123519676519,8.526611328125E-09,-0.23150634765625,1,275,2.20064595341682E-08,-4.86866682767868E-08,100 nA
-0.229339599609375,12.8367659675903,8.477783203125E-09,-0.229095458984375,1,276,2.20064595341682E-08,-4.86866682767868E-08,100 nA
-0.226898193359375,12.8611799675286,8.2244873046875E-09,-0.2266845703125,1,277,2.20064595341682E-08,-4.86866682767868E-08,100 nA
-0.224456787109375,12.885593967467,7.97119140625E-09,-0.22418212890625,1,278,2.20064595341682E-08,-4.86866682767868E-08,100 nA
-0.222015380859375,12.9100079674054,7.635498046875E-09,-0.22174072265625,1,279,2.20064595341682E-08,-4.86866682767868E-08,100 nA
-0.219573974609375,12.9344219673437,7.51953125E-09,-0.21929931640625,1,280,2.20064595341682E-08,-4.86866682767868E-08,100 nA
-0.217132568359375,12.9588359672821,7.4493408203125E-09,-0.21685791015625,1,281,2.20064595341682E-08,-4.86866682767868E-08,100 nA
-0.214691162109375,12.9832499672204,7.275390625E-09,-0.214385986328125,1,282,2.20064595341682E-08,-4.86866682767868E-08,100 nA
-0.212249755859375,13.0076639671588,7.171630859375E-09,-0.212005615234375,1,283,2.20064595341682E-08,-4.86866682767868E-08,100 nA
-0.209808349609375,13.0320779670972,6.976318359375E-09,-0.209564208984375,1,284,2.20064595341682E-08,-4.86866682767868E-08,100 nA
-0.207366943359375,13.0564919670355,6.94580078125E-09,-0.207122802734375,1,285,2.20064595341682E-08,-4.86866682767868E-08,100 nA
-0.204925537109375,13.0809059669739,6.793212890625E-09,-0.2047119140625,1,286,2.20064595341682E-08,-4.86866682767868E-08,100 nA
-0.202484130859375,13.1053199669122,6.622314453125E-09,-0.20220947265625,1,287,2.20064595341682E-08,-4.86866682767868E-08,100 nA
-0.200042724609375,13.1297339668506,6.4788818359375E-09,-0.199798583984375,1,288,2.20064595341682E-08,-4.86866682767868E-08,100 nA
-0.197601318359375,13.154147966789,6.4697265625E-09,-0.197418212890625,1,289,2.20064595341682E-08,-4.86866682767868E-08,100 nA
-0.195159912109375,13.1785619667273,6.0760498046875E-09,-0.1949462890625,1,290,2.20064595341682E-08,-4.86866682767868E-08,100 nA
-0.192718505859375,13.2029759666657,6.317138671875E-09,-0.192413330078125,1,291,2.20064595341682E-08,-4.86866682767868E-08,100 nA
-0.190277099609375,13.2273899666041,6.2744140625E-09,-0.190155029296875,1,292,2.20064595341682E-08,-4.86866682767868E-08,100 nA
-0.187835693359375,13.2518039665424,6.04248046875E-09,-0.1876220703125,1,293,2.20064595341682E-08,-4.86866682767868E-08,100 nA
-0.185394287109375,13.2762179664808,6.06689453125E-09,-0.18511962890625,1,294,2.20064595341682E-08,-4.86866682767868E-08,100 nA
-0.182952880859375,13.3006319664191,6.0333251953125E-09,-0.1827392578125,1,295,2.20064595341682E-08,-4.86866682767868E-08,100 nA
-0.180511474609375,13.3250459663575,5.8837890625E-09,-0.1802978515625,1,296,2.20064595341682E-08,-4.86866682767868E-08,100 nA
-0.178070068359375,13.3494599662959,5.731201171875E-09,-0.1778564453125,1,297,2.20064595341682E-08,-4.86866682767868E-08,100 nA
-0.175628662109375,13.3738739662342,5.682373046875E-09,-0.1754150390625,1,298,2.20064595341682E-08,-4.86866682767868E-08,100 nA
-0.173187255859375,13.3982879661726,5.9051513671875E-09,-0.1729736328125,1,299,2.20064595341682E-08,-4.86866682767868E-08,100 nA
-0.170745849609375,13.4227019661109,5.804443359375E-09,-0.1705322265625,1,300,2.20064595341682E-08,-4.86866682767868E-08,100 nA
-0.168304443359375,13.4471159660493,5.584716796875E-09,-0.16815185546875,1,301,2.20064595341682E-08,-4.86866682767868E-08,100 nA
-0.165863037109375,13.4715299659877,5.57861328125E-09,-0.165618896484375,1,302,2.20064595341682E-08,-4.86866682767868E-08,100 nA
-0.163421630859375,13.495943965926,5.5816650390625E-09,-0.16326904296875,1,303,2.20064595341682E-08,-4.86866682767868E-08,100 nA
-0.160980224609375,13.5203579658644,5.413818359375E-09,-0.160797119140625,1,304,2.20064595341682E-08,-4.86866682767868E-08,100 nA
-0.158538818359375,13.5447719658027,5.4229736328125E-09,-0.1583251953125,1,305,2.20064595341682E-08,-4.86866682767868E-08,100 nA
-0.156097412109375,13.5691859657411,5.5877685546875E-09,-0.155853271484375,1,306,2.20064595341682E-08,-4.86866682767868E-08,100 nA
-0.153656005859375,13.5935999656795,5.33447265625E-09,-0.15350341796875,1,307,2.20064595341682E-08,-4.86866682767868E-08,100 nA
-0.151214599609375,13.6180139656178,5.3192138671875E-09,-0.1510009765625,1,308,2.20064595341682E-08,-4.86866682767868E-08,100 nA
-0.148773193359375,13.6424279655562,5.43212890625E-09,-0.1485595703125,1,309,2.20064595341682E-08,-4.86866682767868E-08,100 nA
-0.146331787109375,13.6668419654945,5.352783203125E-09,-0.146087646484375,1,310,2.20064595341682E-08,-4.86866682767868E-08,100 nA
-0.143890380859375,13.6912559654329,5.4656982421875E-09,-0.1436767578125,1,311,2.20064595341682E-08,-4.86866682767868E-08,100 nA
-0.141448974609375,13.7156699653713,5.377197265625E-09,-0.141265869140625,1,312,2.20064595341682E-08,-4.86866682767868E-08,100 nA
-0.139007568359375,13.7400839653096,5.108642578125E-09,-0.138763427734375,1,313,2.20064595341682E-08,-4.86866682767868E-08,100 nA
-0.136566162109375,13.764497965248,5.3466796875E-09,-0.136383056640625,1,314,2.20064595341682E-08,-4.86866682767868E-08,100 nA
-0.134124755859375,13.7889119651863,5.279541015625E-09,-0.133941650390625,1,315,2.20064595341682E-08,-4.86866682767868E-08,100 nA
-0.131683349609375,13.8133259651247,5.462646484375E-09,-0.131500244140625,1,316,2.20064595341682E-08,-4.86866682767868E-08,100 nA
-0.129241943359375,13.8377399650631,5.316162109375E-09,-0.129058837890625,1,317,2.20064595341682E-08,-4.86866682767868E-08,100 nA
-0.126800537109375,13.8621539650014,5.3070068359375E-09,-0.12664794921875,1,318,2.20064595341682E-08,-4.86866682767868E-08,100 nA
-0.124359130859375,13.8865679649398,5.0994873046875E-09,-0.1241455078125,1,319,2.20064595341682E-08,-4.86866682767868E-08,100 nA
-0.121917724609375,13.9109819648781,5.1055908203125E-09,-0.121734619140625,1,320,2.20064595341682E-08,-4.86866682767868E-08,100 nA
-0.119476318359375,13.9353959648165,5.120849609375E-09,-0.11932373046875,1,321,2.20064595341682E-08,-4.86866682767868E-08,100 nA
-0.117034912109375,13.9598099647549,4.98046875E-09,-0.116851806640625,1,322,2.20064595341682E-08,-4.86866682767868E-08,100 nA
-0.114593505859375,13.9842239646932,5.1239013671875E-09,-0.1143798828125,1,323,2.20064595341682E-08,-4.86866682767868E-08,100 nA
-0.112152099609375,14.0086379646316,4.9835205078125E-09,-0.11187744140625,1,324,2.20064595341682E-08,-4.86866682767868E-08,100 nA
-0.109710693359375,14.03305196457,5.0689697265625E-09,-0.10955810546875,1,325,2.20064595341682E-08,-4.86866682767868E-08,100 nA
-0.107269287109375,14.0574659645083,5.0811767578125E-09,-0.107086181640625,1,326,2.20064595341682E-08,-4.86866682767868E-08,100 nA
-0.104827880859375,14.0818799644467,5.1513671875E-09,-0.10467529296875,1,327,2.20064595341682E-08,-4.86866682767868E-08,100 nA
-0.102386474609375,14.106293964385,5.2215576171875E-09,-0.102203369140625,1,328,2.20064595341682E-08,-4.86866682767868E-08,100 nA
-0.099945068359375,14.1307079643234,5.1116943359375E-09,-0.09979248046875,1,329,2.20064595341682E-08,-4.86866682767868E-08,100 nA
-0.102386474609375,14.1551219642618,4.0679931640625E-09,-0.1021728515625,1,330,2.20064595341682E-08,-4.86866682767868E-08,100 nA
-0.104827880859375,14.1795359642001,3.21044921875E-09,-0.10467529296875,1,331,2.20064595341682E-08,-4.86866682767868E-08,100 nA
-0.107269287109375,14.2039499641385,2.57568359375E-09,-0.10711669921875,1,332,2.20064595341682E-08,-4.86866682767868E-08,100 nA
-0.109710693359375,14.2283639640768,2.17864990234375E-09,-0.1094970703125,1,333,2.20064595341682E-08,-4.86866682767868E-08,100 nA
-0.112152099609375,14.2527779640152,1.78009033203125E-09,-0.111968994140625,1,334,2.20064595341682E-08,-4.86866682767868E-08,100 nA
-0.114593505859375,14.2771919639536,1.495361328125E-09,-0.114410400390625,1,335,2.20064595341682E-08,-4.86866682767868E-08,100 nA
-0.117034912109375,14.3016059638919,1.3116455078125E-09,-0.1168212890625,1,336,2.20064595341682E-08,-4.86866682767868E-08,100 nA
-0.119476318359375,14.3260199638303,1.1480712890625E-09,-0.1192626953125,1,337,2.20064595341682E-08,-4.86866682767868E-08,100 nA
-0.121917724609375,14.3504339637686,8.5174560546875E-10,-0.121734619140625,1,338,2.20064595341682E-08,-4.86866682767868E-08,100 nA
-0.124359130859375,14.374847963707,6.00280761718749E-10,-0.1241455078125,1,339,2.20064595341682E-08,-4.86866682767868E-08,100 nA
-0.126800537109375,14.3992619636454,3.704833984375E-10,-0.1265869140625,1,340,2.20064595341682E-08,-4.86866682767868E-08,100 nA
-0.129241943359375,14.4236759635837,-3.66210937499944E-12,-0.128997802734375,1,341,2.20064595341682E-08,-4.86866682767868E-08,100 nA
-0.131683349609375,14.4480899635221,6.53076171875003E-11,-0.1314697265625,1,342,2.20064595341682E-08,-4.86866682767868E-08,100 nA
-0.134124755859375,14.4725039634604,-5.49316406250055E-12,-0.1339111328125,1,343,2.20064595341682E-08,-4.86866682767868E-08,100 nA
-0.136566162109375,14.4969179633988,-1.15051269531249E-10,-0.1363525390625,1,344,2.20064595341682E-08,-4.86866682767868E-08,100 nA
-0.139007568359375,14.5213319633372,-3.6651611328125E-10,-0.1387939453125,1,345,2.20064595341682E-08,-4.86866682767868E-08,100 nA
-0.141448974609375,14.5457459632755,-4.53796386718749E-10,-0.1412353515625,1,346,2.20064595341682E-08,-4.86866682767868E-08,100 nA
-0.143890380859375,14.5701599632139,-6.49108886718749E-10,-0.143707275390625,1,347,2.20064595341682E-08,-4.86866682767868E-08,100 nA
-0.146331787109375,14.5945739631522,-9.228515625E-10,-0.146148681640625,1,348,2.20064595341682E-08,-4.86866682767868E-08,100 nA
-0.148773193359375,14.6189879630906,-9.6099853515625E-10,-0.1485595703125,1,349,2.20064595341682E-08,-4.86866682767868E-08,100 nA
-0.151214599609375,14.643401963029,-1.2103271484375E-09,-0.1510009765625,1,350,2.20064595341682E-08,-4.86866682767868E-08,100 nA
-0.153656005859375,14.6678159629673,-1.07147216796875E-09,-0.153411865234375,1,351,2.20064595341682E-08,-4.86866682767868E-08,100 nA
-0.156097412109375,14.6922299629057,-1.42059326171875E-09,-0.1558837890625,1,352,2.20064595341682E-08,-4.86866682767868E-08,100 nA
-0.158538818359375,14.716643962844,-1.30218505859375E-09,-0.1583251953125,1,353,2.20064595341682E-08,-4.86866682767868E-08,100 nA
-0.160980224609375,14.7410579627824,-1.4654541015625E-09,-0.160675048828125,1,354,2.20064595341682E-08,-4.86866682767868E-08,100 nA
-0.163421630859375,14.7654719627208,-1.36199951171875E-09,-0.16314697265625,1,355,2.20064595341682E-08,-4.86866682767868E-08,100 nA
-0.165863037109375,14.7898859626591,-1.47705078125E-09,-0.1656494140625,1,356,2.20064595341682E-08,-4.86866682767868E-08,100 nA
-0.168304443359375,14.8142999625975,-1.49444580078125E-09,-0.168060302734375,1,357,2.20064595341682E-08,-4.86866682767868E-08,100 nA
-0.170745849609375,14.8387139625358,-1.61468505859375E-09,-0.170501708984375,1,358,2.20064595341682E-08,-4.86866682767868E-08,100 nA
-0.173187255859375,14.8631279624742,-1.8798828125E-09,-0.172882080078125,1,359,2.20064595341682E-08,-4.86866682767868E-08,100 nA
-0.175628662109375,14.8875419624126,-1.99798583984375E-09,-0.1754150390625,1,360,2.20064595341682E-08,-4.86866682767868E-08,100 nA
-0.178070068359375,14.9119559623509,-1.98944091796875E-09,-0.177825927734375,1,361,2.20064595341682E-08,-4.86866682767868E-08,100 nA
-0.180511474609375,14.9363699622893,-1.8646240234375E-09,-0.1802978515625,1,362,2.20064595341682E-08,-4.86866682767868E-08,100 nA
-0.182952880859375,14.9607839622277,-2.13104248046875E-09,-0.1827392578125,1,363,2.20064595341682E-08,-4.86866682767868E-08,100 nA
-0.185394287109375,14.985197962166,-1.9500732421875E-09,-0.185150146484375,1,364,2.20064595341682E-08,-4.86866682767868E-08,100 nA
-0.187835693359375,15.0096119621044,-2.2857666015625E-09,-0.187591552734375,1,365,2.20064595341682E-08,-4.86866682767868E-08,100 nA
-0.190277099609375,15.0340259620427,-2.25830078125E-09,-0.190032958984375,1,366,2.20064595341682E-08,-4.86866682767868E-08,100 nA
-0.192718505859375,15.0584399619811,-2.38555908203125E-09,-0.19244384765625,1,367,2.20064595341682E-08,-4.86866682767868E-08,100 nA
-0.195159912109375,15.0828539619195,-2.3284912109375E-09,-0.1949462890625,1,368,2.20064595341682E-08,-4.86866682767868E-08,100 nA
-0.197601318359375,15.1072679618578,-2.520751953125E-09,-0.1973876953125,1,369,2.20064595341682E-08,-4.86866682767868E-08,100 nA
-0.200042724609375,15.1316819617962,-2.276611328125E-09,-0.1998291015625,1,370,2.20064595341682E-08,-4.86866682767868E-08,100 nA
-0.202484130859375,15.1560959617345,-2.52685546875E-09,-0.202301025390625,2,371,2.22265645861626E-08,-4.80057969689369E-08,100 nA
-0.204925537109375,15.1805099616729,-2.6519775390625E-09,-0.20465087890625,2,372,2.22265645861626E-08,-4.80057969689369E-08,100 nA
-0.207366943359375,15.2049239616113,-2.728271484375E-09,-0.20709228515625,2,373,2.22265645861626E-08,-4.80057969689369E-08,100 nA
-0.209808349609375,15.2293379615496,-2.7618408203125E-09,-0.209503173828125,2,374,2.22265645861626E-08,-4.80057969689369E-08,100 nA
-0.212249755859375,15.253751961488,-2.862548828125E-09,-0.2120361328125,2,375,2.22265645861626E-08,-4.80057969689369E-08,100 nA
-0.214691162109375,15.2781659614263,-3.143310546875E-09,-0.21441650390625,2,376,2.22265645861626E-08,-4.80057969689369E-08,100 nA
-0.217132568359375,15.3025799613647,-2.91748046875E-09,-0.21685791015625,2,377,2.22265645861626E-08,-4.80057969689369E-08,100 nA
-0.219573974609375,15.3269939613031,-3.0853271484375E-09,-0.21929931640625,2,378,2.22265645861626E-08,-4.80057969689369E-08,100 nA
-0.222015380859375,15.3514079612414,-3.082275390625E-09,-0.22174072265625,2,379,2.22265645861626E-08,-4.80057969689369E-08,100 nA
-0.224456787109375,15.3758219611798,-3.228759765625E-09,-0.224212646484375,2,380,2.22265645861626E-08,-4.80057969689369E-08,100 nA
-0.226898193359375,15.4002359611181,-3.0517578125E-09,-0.226593017578125,2,381,2.22265645861626E-08,-4.80057969689369E-08,100 nA
-0.229339599609375,15.4246499610565,-3.436279296875E-09,-0.22906494140625,2,382,2.22265645861626E-08,-4.80057969689369E-08,100 nA
-0.231781005859375,15.4490639609949,-3.4515380859375E-09,-0.2314453125,2,383,2.22265645861626E-08,-4.80057969689369E-08,100 nA
-0.234222412109375,15.4734779609332,-3.5888671875E-09,-0.233917236328125,2,384,2.22265645861626E-08,-4.80057969689369E-08,100 nA
-0.236663818359375,15.4978919608716,-3.619384765625E-09,-0.236419677734375,2,385,2.22265645861626E-08,-4.80057969689369E-08,100 nA
-0.239105224609375,15.5223059608099,-3.759765625E-09,-0.238800048828125,2,386,2.22265645861626E-08,-4.80057969689369E-08,100 nA
-0.241546630859375,15.5467199607483,-3.955078125E-09,-0.241241455078125,2,387,2.22265645861626E-08,-4.80057969689369E-08,100 nA
-0.243988037109375,15.5711339606867,-4.00390625E-09,-0.243682861328125,2,388,2.22265645861626E-08,-4.80057969689369E-08,100 nA
-0.246429443359375,15.595547960625,-4.4708251953125E-09,-0.24609375,2,389,2.22265645861626E-08,-4.80057969689369E-08,100 nA
-0.248870849609375,15.6199619605634,-4.364013671875E-09,-0.24859619140625,2,390,2.22265645861626E-08,-4.80057969689369E-08,100 nA
-0.251312255859375,15.6443759605017,-4.9530029296875E-09,-0.25103759765625,2,391,2.22265645861626E-08,-4.80057969689369E-08,100 nA
-0.253753662109375,15.6687899604401,-4.9652099609375E-09,-0.25347900390625,2,392,2.22265645861626E-08,-4.80057969689369E-08,100 nA
-0.256195068359375,15.6932039603785,-5.26123046875E-09,-0.255950927734375,2,393,2.22265645861626E-08,-4.80057969689369E-08,100 nA
-0.258636474609375,15.7176179603168,-5.8624267578125E-09,-0.258270263671875,2,394,2.22265645861626E-08,-4.80057969689369E-08,100 nA
-0.261077880859375,15.7420319602552,-6.011962890625E-09,-0.2607421875,2,395,2.22265645861626E-08,-4.80057969689369E-08,100 nA
-0.263519287109375,15.7664459601936,-6.45751953125E-09,-0.263214111328125,2,396,2.22265645861626E-08,-4.80057969689369E-08,100 nA
-0.265960693359375,15.7908599601319,-7.2174072265625E-09,-0.265625,2,397,2.22265645861626E-08,-4.80057969689369E-08,100 nA
-0.268402099609375,15.8152739600703,-7.7545166015625E-09,-0.26806640625,2,398,2.22265645861626E-08,-4.80057969689369E-08,100 nA
-0.270843505859375,15.8396879600086,-8.38623046875E-09,-0.27056884765625,2,399,2.22265645861626E-08,-4.80057969689369E-08,100 nA
-0.273284912109375,15.864101959947,-9.2315673828125E-09,-0.272979736328125,2,400,2.22265645861626E-08,-4.80057969689369E-08,100 nA
-0.275726318359375,15.8885159598854,-9.979248046875E-09,-0.275390625,2,401,2.22265645861626E-08,-4.80057969689369E-08,100 nA
-0.278167724609375,15.9129299598237,-1.0760498046875E-08,-0.27783203125,2,402,2.22265645861626E-08,-4.80057969689369E-08,100 nA
-0.280609130859375,15.9373439597621,-1.18133544921875E-08,-0.2802734375,2,403,2.22265645861626E-08,-4.80057969689369E-08,100 nA
-0.283050537109375,15.9617579597004,-1.292724609375E-08,-0.28271484375,2,404,2.22265645861626E-08,-4.80057969689369E-08,100 nA
-0.285491943359375,15.9861719596388,-1.375732421875E-08,-0.285125732421875,2,405,2.22265645861626E-08,-4.80057969689369E-08,100 nA
-0.287933349609375,16.0105859595772,-1.495361328125E-08,-0.28753662109375,2,406,2.22265645861626E-08,-4.80057969689369E-08,100 nA
-0.290374755859375,16.0349999595155,-1.578369140625E-08,-0.290008544921875,2,407,2.22265645861626E-08,-4.80057969689369E-08,100 nA
-0.292816162109375,16.0594139594539,-1.6571044921875E-08,-0.29254150390625,2,408,2.22265645861626E-08,-4.80057969689369E-08,100 nA
-0.295257568359375,16.0838279593922,-1.7523193359375E-08,-0.29486083984375,2,409,2.22265645861626E-08,-4.80057969689369E-08,100 nA
-0.297698974609375,16.1082419593306,-1.8212890625E-08,-0.297271728515625,2,410,2.22265645861626E-08,-4.80057969689369E-08,100 nA
-0.300140380859375,16.132655959269,-1.890869140625E-08,-0.29974365234375,2,411,2.22265645861626E-08,-4.80057969689369E-08,100 nA
-0.302581787109375,16.1570699592073,-1.9287109375E-08,-0.302215576171875,2,412,2.22265645861626E-08,-4.80057969689369E-08,100 nA
-0.305023193359375,16.1814839591457,-1.956787109375E-08,-0.304656982421875,2,413,2.22265645861626E-08,-4.80057969689369E-08,100 nA
-0.307464599609375,16.205897959084,-1.9329833984375E-08,-0.307037353515625,2,414,2.22265645861626E-08,-4.80057969689369E-08,100 nA
-0.309906005859375,16.2303119590224,-1.9744873046875E-08,-0.309600830078125,2,415,2.22265645861626E-08,-4.80057969689369E-08,100 nA
-0.312347412109375,16.2547259589608,-1.93206787109375E-08,-0.31201171875,2,416,2.22265645861626E-08,-4.80057969689369E-08,100 nA
-0.314788818359375,16.2791399588991,-1.917724609375E-08,-0.314422607421875,2,417,2.22265645861626E-08,-4.80057969689369E-08,100 nA
-0.317230224609375,16.3035539588375,-1.87652587890625E-08,-0.316802978515625,2,418,2.22265645861626E-08,-4.80057969689369E-08,100 nA
-0.319671630859375,16.3279679587758,-1.839599609375E-08,-0.319305419921875,2,419,2.22265645861626E-08,-4.80057969689369E-08,100 nA
-0.322113037109375,16.3523819587142,-1.80877685546875E-08,-0.32177734375,2,420,2.22265645861626E-08,-4.80057969689369E-08,100 nA
-0.324554443359375,16.3767959586526,-1.734619140625E-08,-0.32421875,2,421,2.22265645861626E-08,-4.80057969689369E-08,100 nA
-0.326995849609375,16.4012099585909,-1.67816162109375E-08,-0.326629638671875,2,422,2.22265645861626E-08,-4.80057969689369E-08,100 nA
-0.329437255859375,16.4256239585293,-1.6265869140625E-08,-0.329071044921875,2,423,2.22265645861626E-08,-4.80057969689369E-08,100 nA
-0.331878662109375,16.4500379584676,-1.578369140625E-08,-0.33148193359375,2,424,2.22265645861626E-08,-4.80057969689369E-08,100 nA
-0.334320068359375,16.474451958406,-1.51397705078125E-08,-0.333953857421875,2,425,2.22265645861626E-08,-4.80057969689369E-08,100 nA
-0.336761474609375,16.4988659583444,-1.474609375E-08,-0.336395263671875,2,426,2.22265645861626E-08,-4.80057969689369E-08,100 nA
-0.339202880859375,16.5232799582827,-1.42242431640625E-08,-0.338836669921875,2,427,2.22265645861626E-08,-4.80057969689369E-08,100 nA
-0.341644287109375,16.5476939582211,-1.37420654296875E-08,-0.34130859375,2,428,2.22265645861626E-08,-4.80057969689369E-08,100 nA
-0.344085693359375,16.5721079581594,-1.3348388671875E-08,-0.34368896484375,2,429,2.22265645861626E-08,-4.80057969689369E-08,100 nA
-0.346527099609375,16.5965219580978,-1.3055419921875E-08,-0.346160888671875,2,430,2.22265645861626E-08,-4.80057969689369E-08,100 nA
-0.348968505859375,16.6209359580362,-1.27655029296875E-08,-0.34857177734375,2,431,2.22265645861626E-08,-4.80057969689369E-08,100 nA
-0.351409912109375,16.6453499579745,-1.22589111328125E-08,-0.351043701171875,2,432,2.22265645861626E-08,-4.80057969689369E-08,100 nA
-0.353851318359375,16.6697639579129,-1.17889404296875E-08,-0.35345458984375,2,433,2.22265645861626E-08,-4.80057969689369E-08,100 nA
-0.356292724609375,16.6941779578513,-1.16851806640625E-08,-0.355926513671875,2,434,2.22265645861626E-08,-4.80057969689369E-08,100 nA
-0.358734130859375,16.7185919577896,-1.13250732421875E-08,-0.35833740234375,2,435,2.22265645861626E-08,-4.80057969689369E-08,100 nA
-0.361175537109375,16.743005957728,-1.1175537109375E-08,-0.36077880859375,2,436,2.22265645861626E-08,-4.80057969689369E-08,100 nA
-0.363616943359375,16.7674199576663,-1.0980224609375E-08,-0.363250732421875,2,437,2.22265645861626E-08,-4.80057969689369E-08,100 nA
-0.366058349609375,16.7918339576047,-1.07421875E-08,-0.365631103515625,2,438,2.22265645861626E-08,-4.80057969689369E-08,100 nA
-0.368499755859375,16.8162479575431,-1.04095458984375E-08,-0.368072509765625,2,439,2.22265645861626E-08,-4.80057969689369E-08,100 nA
-0.370941162109375,16.8406619574814,-9.991455078125E-09,-0.370513916015625,2,440,2.22265645861626E-08,-4.80057969689369E-08,100 nA
-0.373382568359375,16.8650759574198,-1.00433349609375E-08,-0.373046875,2,441,2.22265645861626E-08,-4.80057969689369E-08,100 nA
-0.375823974609375,16.8894899573581,-9.9517822265625E-09,-0.375396728515625,2,442,2.22265645861626E-08,-4.80057969689369E-08,100 nA
-0.378265380859375,16.9139039572965,-9.66796875E-09,-0.377838134765625,2,443,2.22265645861626E-08,-4.80057969689369E-08,100 nA
-0.380706787109375,16.9383179572349,-9.9151611328125E-09,-0.380340576171875,2,444,2.22265645861626E-08,-4.80057969689369E-08,100 nA
-0.383148193359375,16.9627319571732,-9.6405029296875E-09,-0.38275146484375,2,445,2.22265645861626E-08,-4.80057969689369E-08,100 nA
-0.385589599609375,16.9871459571116,-9.3963623046875E-09,-0.385162353515625,2,446,2.22265645861626E-08,-4.80057969689369E-08,100 nA
-0.388031005859375,17.0115599570499,-9.5703125E-09,-0.387603759765625,2,447,2.22265645861626E-08,-4.80057969689369E-08,100 nA
-0.390472412109375,17.0359739569883,-9.26513671875E-09,-0.39007568359375,2,448,2.22265645861626E-08,-4.80057969689369E-08,100 nA
-0.392913818359375,17.0603879569267,-9.2864990234375E-09,-0.39251708984375,2,449,2.22265645861626E-08,-4.80057969689369E-08,100 nA
-0.395355224609375,17.084801956865,-9.02099609375E-09,-0.39495849609375,2,450,2.22265645861626E-08,-4.80057969689369E-08,100 nA
-0.397796630859375,17.1092159568034,-9.2254638671875E-09,-0.397369384765625,2,451,2.22265645861626E-08,-4.80057969689369E-08,100 nA
-0.400238037109375,17.1336299567417,-9.130859375E-09,-0.39984130859375,2,452,2.22265645861626E-08,-4.80057969689369E-08,100 nA
-0.402679443359375,17.1580439566801,-9.1552734375E-09,-0.402313232421875,2,453,2.22265645861626E-08,-4.80057969689369E-08,100 nA
-0.405120849609375,17.1824579566185,-8.9019775390625E-09,-0.404754638671875,2,454,2.22265645861626E-08,-4.80057969689369E-08,100 nA
-0.407562255859375,17.2068719565568,-9.0087890625E-09,-0.407135009765625,2,455,2.22265645861626E-08,-4.80057969689369E-08,100 nA
-0.410003662109375,17.2312859564952,-9.1033935546875E-09,-0.40960693359375,2,456,2.22265645861626E-08,-4.80057969689369E-08,100 nA
-0.412445068359375,17.2556999564335,-8.85009765625E-09,-0.41204833984375,2,457,2.22265645861626E-08,-4.80057969689369E-08,100 nA
-0.414886474609375,17.2801139563719,-9.0423583984375E-09,-0.4144287109375,2,458,2.22265645861626E-08,-4.80057969689369E-08,100 nA
-0.417327880859375,17.3045279563103,-8.9630126953125E-09,-0.416900634765625,2,459,2.22265645861626E-08,-4.80057969689369E-08,100 nA
-0.419769287109375,17.3289419562486,-9.26513671875E-09,-0.419342041015625,2,460,2.22265645861626E-08,-4.80057969689369E-08,100 nA
-0.422210693359375,17.353355956187,-9.2071533203125E-09,-0.42181396484375,2,461,2.22265645861626E-08,-4.80057969689369E-08,100 nA
-0.424652099609375,17.3777699561253,-9.2559814453125E-09,-0.424224853515625,2,462,2.22265645861626E-08,-4.80057969689369E-08,100 nA
-0.427093505859375,17.4021839560637,-9.088134765625E-09,-0.4266357421875,2,463,2.22265645861626E-08,-4.80057969689369E-08,100 nA
-0.429534912109375,17.4265979560021,-9.3963623046875E-09,-0.42913818359375,2,464,2.22265645861626E-08,-4.80057969689369E-08,100 nA
-0.431976318359375,17.4510119559404,-9.429931640625E-09,-0.431549072265625,2,465,2.22265645861626E-08,-4.80057969689369E-08,100 nA
-0.434417724609375,17.4754259558788,-9.28955078125E-09,-0.4339599609375,2,466,2.22265645861626E-08,-4.80057969689369E-08,100 nA
-0.436859130859375,17.4998399558172,-9.6527099609375E-09,-0.4364013671875,2,467,2.22265645861626E-08,-4.80057969689369E-08,100 nA
-0.439300537109375,17.5242539557555,-9.478759765625E-09,-0.43890380859375,2,468,2.22265645861626E-08,-4.80057969689369E-08,100 nA
-0.441741943359375,17.5486679556939,-9.55810546875E-09,-0.441314697265625,2,469,2.22265645861626E-08,-4.80057969689369E-08,100 nA
-0.444183349609375,17.5730819556322,-9.503173828125E-09,-0.443756103515625,2,470,2.22265645861626E-08,-4.80057969689369E-08,100 nA
-0.446624755859375,17.5974959555706,-9.8846435546875E-09,-0.4461669921875,2,471,2.22265645861626E-08,-4.80057969689369E-08,100 nA
-0.449066162109375,17.621909955509,-9.954833984375E-09,-0.448638916015625,2,472,2.22265645861626E-08,-4.80057969689369E-08,100 nA
-0.451507568359375,17.6463239554473,-9.87548828125E-09,-0.45111083984375,2,473,2.22265645861626E-08,-4.80057969689369E-08,100 nA
-0.453948974609375,17.6707379553857,-1.00311279296875E-08,-0.4534912109375,2,474,2.22265645861626E-08,-4.80057969689369E-08,100 nA
-0.456390380859375,17.695151955324,-1.0211181640625E-08,-0.4559326171875,2,475,2.22265645861626E-08,-4.80057969689369E-08,100 nA
-0.458831787109375,17.7195659552624,-1.02325439453125E-08,-0.458343505859375,2,476,2.22265645861626E-08,-4.80057969689369E-08,100 nA
-0.461273193359375,17.7439799552008,-1.04034423828125E-08,-0.4608154296875,2,477,2.22265645861626E-08,-4.80057969689369E-08,100 nA
-0.463714599609375,17.7683939551391,-1.038818359375E-08,-0.46331787109375,2,478,2.22265645861626E-08,-4.80057969689369E-08,100 nA
-0.466156005859375,17.7928079550775,-1.0784912109375E-08,-0.465728759765625,2,479,2.22265645861626E-08,-4.80057969689369E-08,100 nA
-0.468597412109375,17.8172219550158,-1.0601806640625E-08,-0.468170166015625,2,480,2.22265645861626E-08,-4.80057969689369E-08,100 nA
-0.471038818359375,17.8416359549542,-1.09832763671875E-08,-0.47064208984375,2,481,2.22265645861626E-08,-4.80057969689369E-08,100 nA
-0.473480224609375,17.8660499548926,-1.083984375E-08,-0.473052978515625,2,482,2.22265645861626E-08,-4.80057969689369E-08,100 nA
-0.475921630859375,17.8904639548309,-1.1065673828125E-08,-0.4754638671875,2,483,2.22265645861626E-08,-4.80057969689369E-08,100 nA
-0.478363037109375,17.9148779547693,-1.1431884765625E-08,-0.477874755859375,2,484,2.22265645861626E-08,-4.80057969689369E-08,100 nA
-0.480804443359375,17.9392919547076,-1.1199951171875E-08,-0.4803466796875,2,485,2.22265645861626E-08,-4.80057969689369E-08,100 nA
-0.483245849609375,17.963705954646,-1.15753173828125E-08,-0.482757568359375,2,486,2.22265645861626E-08,-4.80057969689369E-08,100 nA
-0.485687255859375,17.9881199545844,-1.1749267578125E-08,-0.485198974609375,2,487,2.22265645861626E-08,-4.80057969689369E-08,100 nA
-0.488128662109375,18.0125339545227,-1.195068359375E-08,-0.487701416015625,2,488,2.22265645861626E-08,-4.80057969689369E-08,100 nA
-0.490570068359375,18.0369479544611,-1.21978759765625E-08,-0.4901123046875,2,489,2.22265645861626E-08,-4.80057969689369E-08,100 nA
-0.493011474609375,18.0613619543994,-1.2359619140625E-08,-0.49249267578125,2,490,2.22265645861626E-08,-4.80057969689369E-08,100 nA
-0.495452880859375,18.0857759543378,-1.256103515625E-08,-0.494964599609375,2,491,2.22265645861626E-08,-4.80057969689369E-08,100 nA
-0.497894287109375,18.1101899542762,-1.27349853515625E-08,-0.4974365234375,2,492,2.22265645861626E-08,-4.80057969689369E-08,100 nA
-0.500335693359375,18.1346039542145,-1.2841796875E-08,-0.499847412109375,2,493,2.22265645861626E-08,-4.80057969689369E-08,100 nA
-0.502777099609375,18.1590179541529,-1.2939453125E-08,-0.502288818359375,2,494,2.22265645861626E-08,-4.80057969689369E-08,100 nA
-0.505218505859375,18.1834319540912,-1.317138671875E-08,-0.504669189453125,2,495,2.22265645861626E-08,-4.80057969689369E-08,100 nA
-0.507659912109375,18.2078459540296,-1.361083984375E-08,-0.50714111328125,2,496,2.22265645861626E-08,-4.80057969689369E-08,100 nA
-0.510101318359375,18.232259953968,-1.3616943359375E-08,-0.50958251953125,2,497,2.22265645861626E-08,-4.80057969689369E-08,100 nA
-0.512542724609375,18.2566739539063,-1.3916015625E-08,-0.512054443359375,2,498,2.22265645861626E-08,-4.80057969689369E-08,100 nA
-0.514984130859375,18.2810879538447,-1.4208984375E-08,-0.514434814453125,2,499,2.22265645861626E-08,-4.80057969689369E-08,100 nA
-0.517425537109375,18.3055019537831,-1.4227294921875E-08,-0.516876220703125,2,500,2.22265645861626E-08,-4.80057969689369E-08,100 nA
-0.519866943359375,18.3299159537214,-1.458740234375E-08,-0.519317626953125,2,501,2.22265645861626E-08,-4.80057969689369E-08,100 nA
-0.522308349609375,18.3543299536598,-1.4691162109375E-08,-0.521759033203125,2,502,2.22265645861626E-08,-4.80057969689369E-08,100 nA
-0.524749755859375,18.3787439535981,-1.51397705078125E-08,-0.52423095703125,2,503,2.22265645861626E-08,-4.80057969689369E-08,100 nA
-0.527191162109375,18.4031579535365,-1.54022216796875E-08,-0.52667236328125,2,504,2.22265645861626E-08,-4.80057969689369E-08,100 nA
-0.529632568359375,18.4275719534749,-1.5484619140625E-08,-0.529144287109375,2,505,2.22265645861626E-08,-4.80057969689369E-08,100 nA
-0.532073974609375,18.4519859534132,-1.58447265625E-08,-0.531585693359375,2,506,2.22265645861626E-08,-4.80057969689369E-08,100 nA
-0.534515380859375,18.4763999533516,-1.607666015625E-08,-0.533966064453125,2,507,2.22265645861626E-08,-4.80057969689369E-08,100 nA
-0.536956787109375,18.5008139532899,-1.62628173828125E-08,-0.536468505859375,2,508,2.22265645861626E-08,-4.80057969689369E-08,100 nA
-0.539398193359375,18.5252279532283,-1.65802001953125E-08,-0.538848876953125,2,509,2.22265645861626E-08,-4.80057969689369E-08,100 nA
-0.541839599609375,18.5496419531667,-1.70318603515625E-08,-0.541290283203125,2,510,2.22265645861626E-08,-4.80057969689369E-08,100 nA
-0.544281005859375,18.574055953105,-1.71112060546875E-08,-0.543701171875,2,511,2.22265645861626E-08,-4.80057969689369E-08,100 nA
-0.546722412109375,18.5984699530434,-1.76025390625E-08,-0.546173095703125,2,512,2.22265645861626E-08,-4.80057969689369E-08,100 nA
-0.549163818359375,18.6228839529817,-1.793212890625E-08,-0.548614501953125,2,513,2.22265645861626E-08,-4.80057969689369E-08,100 nA
-0.551605224609375,18.6472979529201,-1.82891845703125E-08,-0.551055908203125,2,514,2.22265645861626E-08,-4.80057969689369E-08,100 nA
-0.549163818359375,18.6717119528585,-1.6705322265625E-08,-0.548614501953125,2,515,2.22265645861626E-08,-4.80057969689369E-08,100 nA
-0.546722412109375,18.6961259527968,-1.5435791015625E-08,-0.546173095703125,2,516,2.22265645861626E-08,-4.80057969689369E-08,100 nA
-0.544281005859375,18.7205399527352,-1.45263671875E-08,-0.543792724609375,2,517,2.22265645861626E-08,-4.80057969689369E-08,100 nA
-0.541839599609375,18.7449539526735,-1.41387939453125E-08,-0.54132080078125,2,518,2.22265645861626E-08,-4.80057969689369E-08,100 nA
-0.539398193359375,18.7693679526119,-1.3348388671875E-08,-0.53887939453125,2,519,2.22265645861626E-08,-4.80057969689369E-08,100 nA
-0.536956787109375,18.7937819525503,-1.29150390625E-08,-0.536376953125,2,520,2.22265645861626E-08,-4.80057969689369E-08,100 nA
-0.534515380859375,18.8181959524886,-1.2237548828125E-08,-0.533966064453125,2,521,2.22265645861626E-08,-4.80057969689369E-08,100 nA
-0.532073974609375,18.842609952427,-1.15203857421875E-08,-0.531494140625,2,522,2.22265645861626E-08,-4.80057969689369E-08,100 nA
-0.529632568359375,18.8670239523653,-1.116943359375E-08,-0.529144287109375,2,523,2.22265645861626E-08,-4.80057969689369E-08,100 nA
-0.527191162109375,18.8914379523037,-1.09954833984375E-08,-0.526702880859375,2,524,2.22265645861626E-08,-4.80057969689369E-08,100 nA
-0.524749755859375,18.9158519522421,-1.02081298828125E-08,-0.524200439453125,2,525,2.22265645861626E-08,-4.80057969689369E-08,100 nA
-0.522308349609375,18.9402659521804,-9.832763671875E-09,-0.52178955078125,2,526,2.22265645861626E-08,-4.80057969689369E-08,100 nA
-0.519866943359375,18.9646799521188,-9.5611572265625E-09,-0.519378662109375,2,527,2.22265645861626E-08,-4.80057969689369E-08,100 nA
-0.517425537109375,18.9890939520571,-9.1766357421875E-09,-0.516937255859375,2,528,2.22265645861626E-08,-4.80057969689369E-08,100 nA
-0.514984130859375,19.0135079519955,-8.8958740234375E-09,-0.514434814453125,2,529,2.22265645861626E-08,-4.80057969689369E-08,100 nA
-0.512542724609375,19.0379219519339,-8.3587646484375E-09,-0.51202392578125,2,530,2.22265645861626E-08,-4.80057969689369E-08,100 nA
-0.510101318359375,19.0623359518722,-8.19091796875E-09,-0.509552001953125,2,531,2.22265645861626E-08,-4.80057969689369E-08,100 nA
-0.507659912109375,19.0867499518106,-7.67822265625E-09,-0.507171630859375,2,532,2.22265645861626E-08,-4.80057969689369E-08,100 nA
-0.505218505859375,19.1111639517489,-7.6416015625E-09,-0.504669189453125,2,533,2.22265645861626E-08,-4.80057969689369E-08,100 nA
-0.502777099609375,19.1355779516873,-7.11669921875E-09,-0.50225830078125,2,534,2.22265645861626E-08,-4.80057969689369E-08,100 nA
-0.500335693359375,19.1599919516257,-6.866455078125E-09,-0.499847412109375,2,535,2.22265645861626E-08,-4.80057969689369E-08,100 nA
-0.497894287109375,19.184405951564,-6.689453125E-09,-0.497406005859375,2,536,2.22265645861626E-08,-4.80057969689369E-08,100 nA
-0.495452880859375,19.2088199515024,-6.50634765625E-09,-0.4949951171875,2,537,2.22265645861626E-08,-4.80057969689369E-08,100 nA
-0.493011474609375,19.2332339514408,-5.9906005859375E-09,-0.492431640625,2,538,2.22265645861626E-08,-4.80057969689369E-08,100 nA
-0.490570068359375,19.2576479513791,-6.011962890625E-09,-0.490081787109375,2,539,2.22265645861626E-08,-4.80057969689369E-08,100 nA
-0.488128662109375,19.2820619513175,-5.72509765625E-09,-0.4876708984375,2,540,2.22265645861626E-08,-4.80057969689369E-08,100 nA
-0.485687255859375,19.3064759512558,-5.5419921875E-09,-0.485260009765625,2,541,2.22265645861626E-08,-4.80057969689369E-08,100 nA
-0.483245849609375,19.3308899511942,-5.157470703125E-09,-0.482818603515625,2,542,2.22265645861626E-08,-4.80057969689369E-08,100 nA
-0.480804443359375,19.3553039511326,-4.9072265625E-09,-0.480377197265625,2,543,2.22265645861626E-08,-4.80057969689369E-08,100 nA
-0.478363037109375,19.3797179510709,-4.827880859375E-09,-0.47796630859375,2,544,2.22265645861626E-08,-4.80057969689369E-08,100 nA
-0.475921630859375,19.4041319510093,-4.2938232421875E-09,-0.475433349609375,2,545,2.22265645861626E-08,-4.80057969689369E-08,100 nA
-0.473480224609375,19.4285459509476,-4.2633056640625E-09,-0.472991943359375,2,546,2.22265645861626E-08,-4.80057969689369E-08,100 nA
-0.471038818359375,19.452959950886,-4.0863037109375E-09,-0.470611572265625,2,547,2.22265645861626E-08,-4.80057969689369E-08,100 nA
-0.468597412109375,19.4773739508244,-3.8726806640625E-09,-0.4681396484375,2,548,2.22265645861626E-08,-4.80057969689369E-08,100 nA
-0.466156005859375,19.5017879507627,-3.564453125E-09,-0.4656982421875,2,549,2.22265645861626E-08,-4.80057969689369E-08,100 nA
-0.463714599609375,19.5262019507011,-3.533935546875E-09,-0.4632568359375,2,550,2.22265645861626E-08,-4.80057969689369E-08,100 nA
-0.461273193359375,19.5506159506394,-3.277587890625E-09,-0.46087646484375,2,551,2.22265645861626E-08,-4.80057969689369E-08,100 nA
-0.458831787109375,19.5750299505778,-3.155517578125E-09,-0.4583740234375,2,552,2.22265645861626E-08,-4.80057969689369E-08,100 nA
-0.456390380859375,19.5994439505162,-2.862548828125E-09,-0.4559326171875,2,553,2.22265645861626E-08,-4.80057969689369E-08,100 nA
-0.453948974609375,19.6238579504545,-2.4658203125E-09,-0.4534912109375,2,554,2.22265645861626E-08,-4.80057969689369E-08,100 nA
-0.451507568359375,19.6482719503929,-2.5177001953125E-09,-0.4510498046875,2,555,2.22265645861626E-08,-4.80057969689369E-08,100 nA
-0.449066162109375,19.6726859503312,-2.3956298828125E-09,-0.44866943359375,2,556,2.22265645861626E-08,-4.80057969689369E-08,100 nA
-0.446624755859375,19.6970999502696,-2.2796630859375E-09,-0.446197509765625,2,557,2.22265645861626E-08,-4.80057969689369E-08,100 nA
-0.444183349609375,19.721513950208,-1.79443359375E-09,-0.44378662109375,2,558,2.22265645861626E-08,-4.80057969689369E-08,100 nA
-0.441741943359375,19.7459279501463,-1.995849609375E-09,-0.4412841796875,2,559,2.22265645861626E-08,-4.80057969689369E-08,100 nA
-0.439300537109375,19.7703419500847,-2.03399658203125E-09,-0.438873291015625,2,560,2.22265645861626E-08,-4.80057969689369E-08,100 nA
-0.436859130859375,19.794755950023,-1.654052734375E-09,-0.436431884765625,2,561,2.22265645861626E-08,-4.80057969689369E-08,100 nA
-0.434417724609375,19.8191699499614,-1.409912109375E-09,-0.43402099609375,2,562,2.22265645861626E-08,-4.80057969689369E-08,100 nA
-0.431976318359375,19.8435839498998,-1.2933349609375E-09,-0.431549072265625,2,563,2.22265645861626E-08,-4.80057969689369E-08,100 nA
-0.429534912109375,19.8679979498381,-1.15966796875E-09,-0.429107666015625,2,564,2.22265645861626E-08,-4.80057969689369E-08,100 nA
-0.427093505859375,19.8924119497765,-1.04888916015625E-09,-0.426666259765625,2,565,2.22265645861626E-08,-4.80057969689369E-08,100 nA
-0.424652099609375,19.9168259497148,-9.6435546875E-10,-0.424346923828125,2,566,2.22265645861626E-08,-4.80057969689369E-08,100 nA
-0.422210693359375,19.9412399496532,-7.18078613281251E-10,-0.42181396484375,2,567,2.22265645861626E-08,-4.80057969689369E-08,100 nA
-0.419769287109375,19.9656539495916,-6.365966796875E-10,-0.41937255859375,2,568,2.22265645861626E-08,-4.80057969689369E-08,100 nA
-0.417327880859375,19.9900679495299,-4.63256835937501E-10,-0.416961669921875,2,569,2.22265645861626E-08,-4.80057969689369E-08,100 nA
-0.414886474609375,20.0144819494683,-2.93884277343751E-10,-0.414459228515625,2,570,2.22265645861626E-08,-4.80057969689369E-08,100 nA
-0.412445068359375,20.0388959494067,-3.369140625E-10,-0.41204833984375,2,571,2.22265645861626E-08,-4.80057969689369E-08,100 nA
-0.410003662109375,20.063309949345,-1.84020996093751E-10,-0.40960693359375,2,572,2.22265645861626E-08,-4.80057969689369E-08,100 nA
-0.407562255859375,20.0877239492834,-1.02844238281249E-10,-0.407135009765625,2,573,2.22265645861626E-08,-4.80057969689369E-08,100 nA
-0.405120849609375,20.1121379492217,-3.66210937499944E-12,-0.404693603515625,2,574,2.22265645861626E-08,-4.80057969689369E-08,100 nA
-0.402679443359375,20.1365519491601,7.04956054687497E-11,-0.402252197265625,2,575,2.22265645861626E-08,-4.80057969689369E-08,100 nA
-0.400238037109375,20.1609659490985,9.94873046874997E-11,-0.39984130859375,2,576,2.22265645861626E-08,-4.80057969689369E-08,100 nA
-0.397796630859375,20.1853799490368,3.9215087890625E-10,-0.3974609375,2,577,2.22265645861626E-08,-4.80057969689369E-08,100 nA
-0.395355224609375,20.2097939489752,3.30200195312499E-10,-0.394927978515625,2,578,2.22265645861626E-08,-4.80057969689369E-08,100 nA
-0.392913818359375,20.2342079489135,5.633544921875E-10,-0.39251708984375,2,579,2.22265645861626E-08,-4.80057969689369E-08,100 nA
-0.390472412109375,20.2586219488519,5.2001953125E-10,-0.39007568359375,2,580,2.22265645861626E-08,-4.80057969689369E-08,100 nA
-0.388031005859375,20.2830359487903,7.2052001953125E-10,-0.3876953125,2,581,2.22265645861626E-08,-4.80057969689369E-08,100 nA
-0.385589599609375,20.3074499487286,1.03363037109375E-09,-0.38519287109375,2,582,2.22265645861626E-08,-4.80057969689369E-08,100 nA
-0.383148193359375,20.331863948667,9.94873046875E-10,-0.38275146484375,2,583,2.22265645861626E-08,-4.80057969689369E-08,100 nA
-0.380706787109375,20.3562779486053,1.148681640625E-09,-0.380340576171875,2,584,2.22265645861626E-08,-4.80057969689369E-08,100 nA
-0.378265380859375,20.3806919485437,1.06109619140625E-09,-0.377899169921875,2,585,2.22265645861626E-08,-4.80057969689369E-08,100 nA
-0.375823974609375,20.4051059484821,1.30340576171875E-09,-0.37548828125,2,586,2.22265645861626E-08,-4.80057969689369E-08,100 nA
-0.373382568359375,20.4295199484204,1.48712158203125E-09,-0.373046875,2,587,2.22265645861626E-08,-4.80057969689369E-08,100 nA
-0.370941162109375,20.4539339483588,1.47125244140625E-09,-0.37060546875,2,588,2.22265645861626E-08,-4.80057969689369E-08,100 nA
-0.368499755859375,20.4783479482971,1.4984130859375E-09,-0.3681640625,2,589,2.22265645861626E-08,-4.80057969689369E-08,100 nA
-0.366058349609375,20.5027619482355,1.5960693359375E-09,-0.36572265625,2,590,2.22265645861626E-08,-4.80057969689369E-08,100 nA
-0.363616943359375,20.5271759481739,1.66656494140625E-09,-0.36322021484375,2,591,2.22265645861626E-08,-4.80057969689369E-08,100 nA
-0.361175537109375,20.5515899481122,1.7755126953125E-09,-0.360809326171875,2,592,2.22265645861626E-08,-4.80057969689369E-08,100 nA
-0.358734130859375,20.5760039480506,1.8829345703125E-09,-0.358367919921875,2,593,2.22265645861626E-08,-4.80057969689369E-08,100 nA
-0.356292724609375,20.6004179479889,2.04681396484375E-09,-0.355926513671875,2,594,2.22265645861626E-08,-4.80057969689369E-08,100 nA
-0.353851318359375,20.6248319479273,2.05078125E-09,-0.35345458984375,2,595,2.22265645861626E-08,-4.80057969689369E-08,100 nA
-0.351409912109375,20.6492459478657,2.31597900390625E-09,-0.351104736328125,2,596,2.22265645861626E-08,-4.80057969689369E-08,100 nA
-0.348968505859375,20.673659947804,2.606201171875E-09,-0.348663330078125,2,597,2.22265645861626E-08,-4.80057969689369E-08,100 nA
-0.346527099609375,20.6980739477424,2.7069091796875E-09,-0.34619140625,2,598,2.22265645861626E-08,-4.80057969689369E-08,100 nA
-0.344085693359375,20.7224879476807,2.81982421875E-09,-0.343719482421875,2,599,2.22265645861626E-08,-4.80057969689369E-08,100 nA
-0.341644287109375,20.7469019476191,3.0242919921875E-09,-0.34136962890625,2,600,2.22265645861626E-08,-4.80057969689369E-08,100 nA
-0.339202880859375,20.7713159475575,3.570556640625E-09,-0.3388671875,2,601,2.22265645861626E-08,-4.80057969689369E-08,100 nA
-0.336761474609375,20.7957299474958,3.6041259765625E-09,-0.33636474609375,2,602,2.22265645861626E-08,-4.80057969689369E-08,100 nA
-0.334320068359375,20.8201439474342,4.1534423828125E-09,-0.333984375,2,603,2.22265645861626E-08,-4.80057969689369E-08,100 nA
-0.331878662109375,20.8445579473726,4.3548583984375E-09,-0.33148193359375,2,604,2.22265645861626E-08,-4.80057969689369E-08,100 nA
-0.329437255859375,20.8689719473109,5.0048828125E-09,-0.32916259765625,2,605,2.22265645861626E-08,-4.80057969689369E-08,100 nA
-0.326995849609375,20.8933859472493,5.352783203125E-09,-0.326690673828125,2,606,2.22265645861626E-08,-4.80057969689369E-08,100 nA
-0.324554443359375,20.9177999471876,6.1279296875E-09,-0.32421875,2,607,2.22265645861626E-08,-4.80057969689369E-08,100 nA
-0.322113037109375,20.942213947126,6.6009521484375E-09,-0.32183837890625,2,608,2.22265645861626E-08,-4.80057969689369E-08,100 nA
-0.319671630859375,20.9666279470644,7.403564453125E-09,-0.3193359375,2,609,2.22265645861626E-08,-4.80057969689369E-08,100 nA
-0.317230224609375,20.9910419470027,8.3038330078125E-09,-0.31689453125,2,610,2.22265645861626E-08,-4.80057969689369E-08,100 nA
-0.314788818359375,21.0154559469411,8.9385986328125E-09,-0.314483642578125,2,611,2.22265645861626E-08,-4.80057969689369E-08,100 nA
-0.312347412109375,21.0398699468794,1.00616455078125E-08,-0.312042236328125,2,612,2.22265645861626E-08,-4.80057969689369E-08,100 nA
-0.309906005859375,21.0642839468178,1.0931396484375E-08,-0.3095703125,2,613,2.22265645861626E-08,-4.80057969689369E-08,100 nA
-0.307464599609375,21.0886979467562,1.1981201171875E-08,-0.307159423828125,2,614,2.22265645861626E-08,-4.80057969689369E-08,100 nA
-0.305023193359375,21.1131119466945,1.290283203125E-08,-0.3046875,2,615,2.22265645861626E-08,-4.80057969689369E-08,100 nA
-0.302581787109375,21.1375259466329,1.390380859375E-08,-0.30230712890625,2,616,2.22265645861626E-08,-4.80057969689369E-08,100 nA
-0.300140380859375,21.1619399465712,1.495361328125E-08,-0.299835205078125,2,617,2.22265645861626E-08,-4.80057969689369E-08,100 nA
-0.297698974609375,21.1863539465096,1.572265625E-08,-0.297393798828125,2,618,2.22265645861626E-08,-4.80057969689369E-08,100 nA
-0.295257568359375,21.210767946448,1.62841796875E-08,-0.294952392578125,2,619,2.22265645861626E-08,-4.80057969689369E-08,100 nA
-0.292816162109375,21.2351819463863,1.7041015625E-08,-0.29248046875,2,620,2.22265645861626E-08,-4.80057969689369E-08,100 nA
-0.290374755859375,21.2595959463247,1.74041748046875E-08,-0.29010009765625,2,621,2.22265645861626E-08,-4.80057969689369E-08,100 nA
-0.287933349609375,21.284009946263,1.80145263671875E-08,-0.287628173828125,2,622,2.22265645861626E-08,-4.80057969689369E-08,100 nA
-0.285491943359375,21.3084239462014,1.785888671875E-08,-0.28521728515625,2,623,2.22265645861626E-08,-4.80057969689369E-08,100 nA
-0.283050537109375,21.3328379461398,1.76177978515625E-08,-0.282745361328125,2,624,2.22265645861626E-08,-4.80057969689369E-08,100 nA
-0.280609130859375,21.3572519460781,1.78070068359375E-08,-0.280303955078125,2,625,2.22265645861626E-08,-4.80057969689369E-08,100 nA
-0.278167724609375,21.3816659460165,1.73309326171875E-08,-0.27783203125,2,626,2.22265645861626E-08,-4.80057969689369E-08,100 nA
-0.275726318359375,21.4060799459548,1.69586181640625E-08,-0.275390625,2,627,2.22265645861626E-08,-4.80057969689369E-08,100 nA
-0.273284912109375,21.4304939458932,1.65252685546875E-08,-0.27301025390625,2,628,2.22265645861626E-08,-4.80057969689369E-08,100 nA
-0.270843505859375,21.4549079458316,1.59820556640625E-08,-0.27056884765625,2,629,2.22265645861626E-08,-4.80057969689369E-08,100 nA
-0.268402099609375,21.4793219457699,1.54327392578125E-08,-0.26812744140625,2,630,2.22265645861626E-08,-4.80057969689369E-08,100 nA
-0.265960693359375,21.5037359457083,1.4727783203125E-08,-0.265655517578125,2,631,2.22265645861626E-08,-4.80057969689369E-08,100 nA
-0.263519287109375,21.5281499456466,1.4337158203125E-08,-0.26324462890625,2,632,2.22265645861626E-08,-4.80057969689369E-08,100 nA
-0.261077880859375,21.552563945585,1.37908935546875E-08,-0.260772705078125,2,633,2.22265645861626E-08,-4.80057969689369E-08,100 nA
-0.258636474609375,21.5769779455234,1.336669921875E-08,-0.25836181640625,2,634,2.22265645861626E-08,-4.80057969689369E-08,100 nA
-0.256195068359375,21.6013919454617,1.25244140625E-08,-0.25592041015625,2,635,2.22265645861626E-08,-4.80057969689369E-08,100 nA
-0.253753662109375,21.6258059454001,1.2109375E-08,-0.253448486328125,2,636,2.22265645861626E-08,-4.80057969689369E-08,100 nA
-0.251312255859375,21.6502199453384,1.13372802734375E-08,-0.25103759765625,2,637,2.22265645861626E-08,-4.80057969689369E-08,100 nA
-0.248870849609375,21.6746339452768,1.12396240234375E-08,-0.24859619140625,2,638,2.22265645861626E-08,-4.80057969689369E-08,100 nA
-0.246429443359375,21.6990479452152,1.05621337890625E-08,-0.24615478515625,2,639,2.22265645861626E-08,-4.80057969689369E-08,100 nA
-0.243988037109375,21.7234619451535,1.04736328125E-08,-0.243682861328125,2,640,2.22265645861626E-08,-4.80057969689369E-08,100 nA
-0.241546630859375,21.7478759450919,9.9609375E-09,-0.241241455078125,2,641,2.22265645861626E-08,-4.80057969689369E-08,100 nA
-0.239105224609375,21.7722899450303,9.70458984375E-09,-0.23883056640625,2,642,2.22265645861626E-08,-4.80057969689369E-08,100 nA
-0.236663818359375,21.7967039449686,9.3505859375E-09,-0.236419677734375,2,643,2.22265645861626E-08,-4.80057969689369E-08,100 nA
-0.234222412109375,21.821117944907,8.880615234375E-09,-0.23388671875,2,644,2.22265645861626E-08,-4.80057969689369E-08,100 nA
-0.231781005859375,21.8455319448453,8.55712890625E-09,-0.231536865234375,2,645,2.22265645861626E-08,-4.80057969689369E-08,100 nA
-0.229339599609375,21.8699459447837,8.2763671875E-09,-0.2291259765625,2,646,2.22265645861626E-08,-4.80057969689369E-08,100 nA
-0.226898193359375,21.8943599447221,8.0810546875E-09,-0.226593017578125,2,647,2.22265645861626E-08,-4.80057969689369E-08,100 nA
-0.224456787109375,21.9187739446604,7.9071044921875E-09,-0.22418212890625,2,648,2.22265645861626E-08,-4.80057969689369E-08,100 nA
-0.222015380859375,21.9431879445988,7.7117919921875E-09,-0.221710205078125,2,649,2.22265645861626E-08,-4.80057969689369E-08,100 nA
-0.219573974609375,21.9676019445371,7.6263427734375E-09,-0.219268798828125,2,650,2.22265645861626E-08,-4.80057969689369E-08,100 nA
-0.217132568359375,21.9920159444755,7.5439453125E-09,-0.21685791015625,2,651,2.22265645861626E-08,-4.80057969689369E-08,100 nA
-0.214691162109375,22.0164299444139,7.26318359375E-09,-0.2144775390625,2,652,2.22265645861626E-08,-4.80057969689369E-08,100 nA
-0.212249755859375,22.0408439443522,7.3089599609375E-09,-0.21197509765625,2,653,2.22265645861626E-08,-4.80057969689369E-08,100 nA
-0.209808349609375,22.0652579442906,7.0526123046875E-09,-0.20953369140625,2,654,2.22265645861626E-08,-4.80057969689369E-08,100 nA
-0.207366943359375,22.0896719442289,6.8328857421875E-09,-0.20709228515625,2,655,2.22265645861626E-08,-4.80057969689369E-08,100 nA
-0.204925537109375,22.1140859441673,6.5643310546875E-09,-0.204681396484375,2,656,2.22265645861626E-08,-4.80057969689369E-08,100 nA
-0.202484130859375,22.1384999441057,6.5338134765625E-09,-0.20220947265625,2,657,2.22265645861626E-08,-4.80057969689369E-08,100 nA
-0.200042724609375,22.162913944044,6.585693359375E-09,-0.199798583984375,2,658,2.22265645861626E-08,-4.80057969689369E-08,100 nA
-0.197601318359375,22.1873279439824,6.3690185546875E-09,-0.197357177734375,2,659,2.22265645861626E-08,-4.80057969689369E-08,100 nA
-0.195159912109375,22.2117419439207,6.6131591796875E-09,-0.194854736328125,2,660,2.22265645861626E-08,-4.80057969689369E-08,100 nA
-0.192718505859375,22.2361559438591,6.2164306640625E-09,-0.1925048828125,2,661,2.22265645861626E-08,-4.80057969689369E-08,100 nA
-0.190277099609375,22.2605699437975,6.2164306640625E-09,-0.190093994140625,2,662,2.22265645861626E-08,-4.80057969689369E-08,100 nA
-0.187835693359375,22.2849839437358,6.1981201171875E-09,-0.1876220703125,2,663,2.22265645861626E-08,-4.80057969689369E-08,100 nA
-0.185394287109375,22.3093979436742,6.0455322265625E-09,-0.1851806640625,2,664,2.22265645861626E-08,-4.80057969689369E-08,100 nA
-0.182952880859375,22.3338119436125,5.92041015625E-09,-0.182708740234375,2,665,2.22265645861626E-08,-4.80057969689369E-08,100 nA
-0.180511474609375,22.3582259435509,5.82275390625E-09,-0.180267333984375,2,666,2.22265645861626E-08,-4.80057969689369E-08,100 nA
-0.178070068359375,22.3826399434893,5.8319091796875E-09,-0.177825927734375,2,667,2.22265645861626E-08,-4.80057969689369E-08,100 nA
-0.175628662109375,22.4070539434276,5.828857421875E-09,-0.1754150390625,2,668,2.22265645861626E-08,-4.80057969689369E-08,100 nA
-0.173187255859375,22.431467943366,5.615234375E-09,-0.172943115234375,2,669,2.22265645861626E-08,-4.80057969689369E-08,100 nA
-0.170745849609375,22.4558819433043,5.8380126953125E-09,-0.1705322265625,2,670,2.22265645861626E-08,-4.80057969689369E-08,100 nA
-0.168304443359375,22.4802959432427,5.572509765625E-09,-0.16802978515625,2,671,2.22265645861626E-08,-4.80057969689369E-08,100 nA
-0.165863037109375,22.5047099431811,5.76171875E-09,-0.1656494140625,2,672,2.22265645861626E-08,-4.80057969689369E-08,100 nA
-0.163421630859375,22.5291239431194,5.792236328125E-09,-0.1632080078125,2,673,2.22265645861626E-08,-4.80057969689369E-08,100 nA
-0.160980224609375,22.5535379430578,5.780029296875E-09,-0.1607666015625,2,674,2.22265645861626E-08,-4.80057969689369E-08,100 nA
-0.158538818359375,22.5779519429962,5.4718017578125E-09,-0.1583251953125,2,675,2.22265645861626E-08,-4.80057969689369E-08,100 nA
-0.156097412109375,22.6023659429345,5.596923828125E-09,-0.155853271484375,2,676,2.22265645861626E-08,-4.80057969689369E-08,100 nA
-0.153656005859375,22.6267799428729,5.499267578125E-09,-0.153472900390625,2,677,2.22265645861626E-08,-4.80057969689369E-08,100 nA
-0.151214599609375,22.6511939428112,5.52978515625E-09,-0.1510009765625,2,678,2.22265645861626E-08,-4.80057969689369E-08,100 nA
-0.148773193359375,22.6756079427496,5.5511474609375E-09,-0.148590087890625,2,679,2.22265645861626E-08,-4.80057969689369E-08,100 nA
-0.146331787109375,22.700021942688,5.4473876953125E-09,-0.146148681640625,2,680,2.22265645861626E-08,-4.80057969689369E-08,100 nA
-0.143890380859375,22.7244359426263,5.401611328125E-09,-0.143646240234375,2,681,2.22265645861626E-08,-4.80057969689369E-08,100 nA
-0.141448974609375,22.7488499425647,5.4107666015625E-09,-0.1412353515625,2,682,2.22265645861626E-08,-4.80057969689369E-08,100 nA
-0.139007568359375,22.773263942503,5.3466796875E-09,-0.13885498046875,2,683,2.22265645861626E-08,-4.80057969689369E-08,100 nA
-0.136566162109375,22.7976779424414,5.2001953125E-09,-0.136322021484375,2,684,2.22265645861626E-08,-4.80057969689369E-08,100 nA
-0.134124755859375,22.8220919423798,5.5694580078125E-09,-0.1339111328125,2,685,2.22265645861626E-08,-4.80057969689369E-08,100 nA
-0.131683349609375,22.8465059423181,5.322265625E-09,-0.1314697265625,2,686,2.22265645861626E-08,-4.80057969689369E-08,100 nA
-0.129241943359375,22.8709199422565,5.13916015625E-09,-0.1290283203125,2,687,2.22265645861626E-08,-4.80057969689369E-08,100 nA
-0.126800537109375,22.8953339421948,5.1513671875E-09,-0.126617431640625,2,688,2.22265645861626E-08,-4.80057969689369E-08,100 nA
-0.124359130859375,22.9197479421332,5.3192138671875E-09,-0.124237060546875,2,689,2.22265645861626E-08,-4.80057969689369E-08,100 nA
-0.121917724609375,22.9441619420716,5.13916015625E-09,-0.1217041015625,2,690,2.22265645861626E-08,-4.80057969689369E-08,100 nA
-0.119476318359375,22.9685759420099,5.2032470703125E-09,-0.119293212890625,2,691,2.22265645861626E-08,-4.80057969689369E-08,100 nA
-0.117034912109375,22.9929899419483,5.0750732421875E-09,-0.1168212890625,2,692,2.22265645861626E-08,-4.80057969689369E-08,100 nA
-0.114593505859375,23.0174039418866,5.35888671875E-09,-0.11444091796875,2,693,2.22265645861626E-08,-4.80057969689369E-08,100 nA
-0.112152099609375,23.041817941825,5.3192138671875E-09,-0.112030029296875,2,694,2.22265645861626E-08,-4.80057969689369E-08,100 nA
-0.109710693359375,23.0662319417634,5.328369140625E-09,-0.10955810546875,2,695,2.22265645861626E-08,-4.80057969689369E-08,100 nA
-0.107269287109375,23.0906459417017,5.35888671875E-09,-0.107086181640625,2,696,2.22265645861626E-08,-4.80057969689369E-08,100 nA
-0.104827880859375,23.1150599416401,5.2215576171875E-09,-0.10467529296875,2,697,2.22265645861626E-08,-4.80057969689369E-08,100 nA
-0.102386474609375,23.1394739415784,5.2734375E-09,-0.102264404296875,2,698,2.22265645861626E-08,-4.80057969689369E-08,100 nA
-0.099945068359375,23.1638879415168,5.16357421875E-09,-0.099822998046875,2,699,2.22265645861626E-08,-4.80057969689369E-08,100 nA
-0.102386474609375,23.1883019414552,4.058837890625E-09,-0.10223388671875,2,700,2.22265645861626E-08,-4.80057969689369E-08,100 nA
-0.104827880859375,23.2127159413935,3.23486328125E-09,-0.104644775390625,2,701,2.22265645861626E-08,-4.80057969689369E-08,100 nA
-0.107269287109375,23.2371299413319,2.74658203125E-09,-0.107086181640625,2,702,2.22265645861626E-08,-4.80057969689369E-08,100 nA
-0.109710693359375,23.2615439412702,2.0751953125E-09,-0.109527587890625,2,703,2.22265645861626E-08,-4.80057969689369E-08,100 nA
-0.112152099609375,23.2859579412086,1.9805908203125E-09,-0.11199951171875,2,704,2.22265645861626E-08,-4.80057969689369E-08,100 nA
-0.114593505859375,23.310371941147,1.44378662109375E-09,-0.1143798828125,2,705,2.22265645861626E-08,-4.80057969689369E-08,100 nA
-0.117034912109375,23.3347859410853,1.3336181640625E-09,-0.1168212890625,2,706,2.22265645861626E-08,-4.80057969689369E-08,100 nA
-0.119476318359375,23.3591999410237,9.78698730468749E-10,-0.11932373046875,2,707,2.22265645861626E-08,-4.80057969689369E-08,100 nA
-0.121917724609375,23.3836139409621,8.0291748046875E-10,-0.12176513671875,2,708,2.22265645861626E-08,-4.80057969689369E-08,100 nA
-0.124359130859375,23.4080279409004,6.9854736328125E-10,-0.124176025390625,2,709,2.22265645861626E-08,-4.80057969689369E-08,100 nA
-0.126800537109375,23.4324419408388,3.23486328125E-10,-0.12664794921875,2,710,2.22265645861626E-08,-4.80057969689369E-08,100 nA
-0.129241943359375,23.4568559407771,3.314208984375E-10,-0.128997802734375,2,711,2.22265645861626E-08,-4.80057969689369E-08,100 nA
-0.131683349609375,23.4812699407155,0,-0.1314697265625,2,712,2.22265645861626E-08,-4.80057969689369E-08,100 nA
-0.134124755859375,23.5056839406539,4.33349609374994E-11,-0.1339111328125,2,713,2.22265645861626E-08,-4.80057969689369E-08,100 nA
-0.136566162109375,23.5300979405922,-1.56249999999999E-10,-0.1363525390625,2,714,2.22265645861626E-08,-4.80057969689369E-08,100 nA
-0.139007568359375,23.5545119405306,-4.08325195312501E-10,-0.138824462890625,2,715,2.22265645861626E-08,-4.80057969689369E-08,100 nA
-0.141448974609375,23.5789259404689,-5.60913085937501E-10,-0.141204833984375,2,716,2.22265645861626E-08,-4.80057969689369E-08,100 nA
-0.143890380859375,23.6033399404073,-5.6304931640625E-10,-0.143707275390625,2,717,2.22265645861626E-08,-4.80057969689369E-08,100 nA
-0.146331787109375,23.6277539403457,-6.30798339843749E-10,-0.146148681640625,2,718,2.22265645861626E-08,-4.80057969689369E-08,100 nA
-0.148773193359375,23.652167940284,-7.34863281250001E-10,-0.14849853515625,2,719,2.22265645861626E-08,-4.80057969689369E-08,100 nA
-0.151214599609375,23.6765819402224,-8.465576171875E-10,-0.150970458984375,2,720,2.22265645861626E-08,-4.80057969689369E-08,100 nA
-0.153656005859375,23.7009959401607,-9.8236083984375E-10,-0.153472900390625,2,721,2.22265645861626E-08,-4.80057969689369E-08,100 nA
-0.156097412109375,23.7254099400991,-1.1383056640625E-09,-0.1558837890625,2,722,2.22265645861626E-08,-4.80057969689369E-08,100 nA
-0.158538818359375,23.7498239400375,-1.204833984375E-09,-0.158233642578125,2,723,2.22265645861626E-08,-4.80057969689369E-08,100 nA
-0.160980224609375,23.7742379399758,-1.40411376953125E-09,-0.1607666015625,2,724,2.22265645861626E-08,-4.80057969689369E-08,100 nA
-0.163421630859375,23.7986519399142,-1.4984130859375E-09,-0.163177490234375,2,725,2.22265645861626E-08,-4.80057969689369E-08,100 nA
-0.165863037109375,23.8230659398525,-1.429443359375E-09,-0.1656494140625,2,726,2.22265645861626E-08,-4.80057969689369E-08,100 nA
-0.168304443359375,23.8474799397909,-1.66015625E-09,-0.1680908203125,2,727,2.22265645861626E-08,-4.80057969689369E-08,100 nA
-0.170745849609375,23.8718939397293,-1.751708984375E-09,-0.170501708984375,2,728,2.22265645861626E-08,-4.80057969689369E-08,100 nA
-0.173187255859375,23.8963079396676,-1.8585205078125E-09,-0.17291259765625,2,729,2.22265645861626E-08,-4.80057969689369E-08,100 nA
-0.175628662109375,23.920721939606,-1.86859130859375E-09,-0.1754150390625,2,730,2.22265645861626E-08,-4.80057969689369E-08,100 nA
-0.178070068359375,23.9451359395443,-1.9683837890625E-09,-0.1778564453125,2,731,2.22265645861626E-08,-4.80057969689369E-08,100 nA
-0.180511474609375,23.9695499394827,-1.97021484375E-09,-0.18023681640625,2,732,2.22265645861626E-08,-4.80057969689369E-08,100 nA
-0.182952880859375,23.9939639394211,-2.0721435546875E-09,-0.182708740234375,2,733,2.22265645861626E-08,-4.80057969689369E-08,100 nA
-0.185394287109375,24.0183779393594,-1.9622802734375E-09,-0.185089111328125,2,734,2.22265645861626E-08,-4.80057969689369E-08,100 nA
-0.187835693359375,24.0427919392978,-2.1942138671875E-09,-0.1876220703125,2,735,2.22265645861626E-08,-4.80057969689369E-08,100 nA
-0.190277099609375,24.0672059392361,-2.093505859375E-09,-0.190032958984375,2,736,2.22265645861626E-08,-4.80057969689369E-08,100 nA
-0.192718505859375,24.0916199391745,-2.3712158203125E-09,-0.1925048828125,2,737,2.22265645861626E-08,-4.80057969689369E-08,100 nA
-0.195159912109375,24.1160339391129,-2.4200439453125E-09,-0.19488525390625,2,738,2.22265645861626E-08,-4.80057969689369E-08,100 nA
-0.197601318359375,24.1404479390512,-2.3468017578125E-09,-0.197296142578125,2,739,2.22265645861626E-08,-4.80057969689369E-08,100 nA
-0.200042724609375,24.1648619389896,-2.6153564453125E-09,-0.199798583984375,2,740,2.22265645861626E-08,-4.80057969689369E-08,100 nA
