Potential applied (V);Time (s);WE(1).Current (A);WE(1).Potential (V);Scan;Index;Q+;Q-;Current range
-0.202484130859375;6.11195798456879;-8.1756591796875E-09;-0.20220947265625;1;1;8.41435045003891E-08;-1.87984108924866E-07;100 nA
-0.204925537109375;6.13637198450715;-1.2139892578125E-08;-0.204620361328125;1;2;8.41435045003891E-08;-1.87984108924866E-07;100 nA
-0.207366943359375;6.16078598444551;-1.47308349609375E-08;-0.20709228515625;1;3;8.41435045003891E-08;-1.87984108924866E-07;100 nA
-0.209808349609375;6.18519998438387;-1.74896240234375E-08;-0.209564208984375;1;4;8.41435045003891E-08;-1.87984108924866E-07;100 nA
-0.212249755859375;6.20961398432223;-2.01416015625E-08;-0.2119140625;1;5;8.41435045003891E-08;-1.87984108924866E-07;100 nA
-0.214691162109375;6.23402798426059;-2.20855712890625E-08;-0.21441650390625;1;6;8.41435045003891E-08;-1.87984108924866E-07;100 nA
-0.217132568359375;6.25844198419895;-2.4761962890625E-08;-0.216766357421875;1;7;8.41435045003891E-08;-1.87984108924866E-07;100 nA
-0.219573974609375;6.28285598413731;-2.6885986328125E-08;-0.219268798828125;1;8;8.41435045003891E-08;-1.87984108924866E-07;100 nA
-0.222015380859375;6.30726998407567;-2.93792724609375E-08;-0.221710205078125;1;9;8.41435045003891E-08;-1.87984108924866E-07;100 nA
-0.224456787109375;6.33168398401403;-3.2196044921875E-08;-0.224151611328125;1;10;8.41435045003891E-08;-1.87984108924866E-07;100 nA
-0.226898193359375;6.3560979839524;-3.5137939453125E-08;-0.2265625;1;11;8.41435045003891E-08;-1.87984108924866E-07;100 nA
-0.229339599609375;6.38051198389076;-3.8287353515625E-08;-0.22900390625;1;12;8.41435045003891E-08;-1.87984108924866E-07;100 nA
-0.231781005859375;6.40492598382912;-4.119873046875E-08;-0.23150634765625;1;13;8.41435045003891E-08;-1.87984108924866E-07;100 nA
-0.234222412109375;6.42933998376748;-4.5684814453125E-08;-0.233917236328125;1;14;8.41435045003891E-08;-1.87984108924866E-07;100 nA
-0.236663818359375;6.45375398370584;-4.99267578125E-08;-0.236328125;1;15;8.41435045003891E-08;-1.87984108924866E-07;100 nA
-0.239105224609375;6.4781679836442;-5.4534912109375E-08;-0.23876953125;1;16;8.41435045003891E-08;-1.87984108924866E-07;100 nA
-0.241546630859375;6.50258198358256;-5.9661865234375E-08;-0.2412109375;1;17;8.41435045003891E-08;-1.87984108924866E-07;100 nA
-0.243988037109375;6.52699598352092;-6.524658203125E-08;-0.243682861328125;1;18;8.41435045003891E-08;-1.87984108924866E-07;100 nA
-0.246429443359375;6.55140998345928;-7.12890625E-08;-0.24615478515625;1;19;8.41435045003891E-08;-1.87984108924866E-07;100 nA
-0.248870849609375;6.57582398339764;-7.8521728515625E-08;-0.24847412109375;1;20;8.41435045003891E-08;-1.87984108924866E-07;100 nA
-0.251312255859375;6.600237983336;-8.5601806640625E-08;-0.250946044921875;1;21;8.41435045003891E-08;-1.87984108924866E-07;100 nA
-0.253753662109375;6.62465198327436;-9.356689453125E-08;-0.253326416015625;1;22;8.41435045003891E-08;-1.87984108924866E-07;100 nA
-0.256195068359375;6.64906598321272;-1.01165771484375E-07;-0.255706787109375;1;23;8.41435045003891E-08;-1.87984108924866E-07;100 nA
-0.258636474609375;6.67347998315108;-1.09771728515625E-07;-0.258209228515625;1;24;8.41435045003891E-08;-1.87984108924866E-07;100 nA
-0.261077880859375;6.69789398308944;-1.1761474609375E-07;-0.2606201171875;1;25;8.41435045003891E-08;-1.87984108924866E-07;100 nA
-0.263519287109375;6.7223079830278;-1.258544921875E-07;-0.26300048828125;1;26;8.41435045003891E-08;-1.87984108924866E-07;100 nA
-0.265960693359375;6.74672198296616;-1.34246826171875E-07;-0.26544189453125;1;27;8.41435045003891E-08;-1.87984108924866E-07;100 nA
-0.268402099609375;6.77113598290453;-1.41510009765625E-07;-0.267913818359375;1;28;8.41435045003891E-08;-1.87984108924866E-07;100 nA
-0.270843505859375;6.79554998284289;-1.48956298828125E-07;-0.270294189453125;1;29;8.41435045003891E-08;-1.87984108924866E-07;100 nA
-0.273284912109375;6.81996398278125;-1.54937744140625E-07;-0.272705078125;1;30;8.41435045003891E-08;-1.87984108924866E-07;100 nA
-0.275726318359375;6.84437798271961;-1.5972900390625E-07;-0.275177001953125;1;31;8.41435045003891E-08;-1.87984108924866E-07;100 nA
-0.278167724609375;6.86879198265797;-1.63970947265625E-07;-0.277587890625;1;32;8.41435045003891E-08;-1.87984108924866E-07;100 nA
-0.280609130859375;6.89320598259633;-1.6619873046875E-07;-0.279998779296875;1;33;8.41435045003891E-08;-1.87984108924866E-07;100 nA
-0.283050537109375;6.91761998253469;-1.673583984375E-07;-0.282470703125;1;34;8.41435045003891E-08;-1.87984108924866E-07;100 nA
-0.285491943359375;6.94203398247305;-1.6680908203125E-07;-0.284912109375;1;35;8.41435045003891E-08;-1.87984108924866E-07;100 nA
-0.287933349609375;6.96644798241141;-1.65283203125E-07;-0.287322998046875;1;36;8.41435045003891E-08;-1.87984108924866E-07;100 nA
-0.290374755859375;6.99086198234977;-1.617431640625E-07;-0.289794921875;1;37;8.41435045003891E-08;-1.87984108924866E-07;100 nA
-0.292816162109375;7.01527598228813;-1.5655517578125E-07;-0.292236328125;1;38;8.41435045003891E-08;-1.87984108924866E-07;100 nA
-0.295257568359375;7.03968998222649;-1.5032958984375E-07;-0.294647216796875;1;39;8.41435045003891E-08;-1.87984108924866E-07;100 nA
-0.297698974609375;7.06410398216485;-1.43218994140625E-07;-0.297088623046875;1;40;8.41435045003891E-08;-1.87984108924866E-07;100 nA
-0.300140380859375;7.08851798210321;-1.3494873046875E-07;-0.29962158203125;1;41;8.41435045003891E-08;-1.87984108924866E-07;100 nA
-0.302581787109375;7.11293198204157;-1.2628173828125E-07;-0.30206298828125;1;42;8.41435045003891E-08;-1.87984108924866E-07;100 nA
-0.305023193359375;7.13734598197993;-1.16912841796875E-07;-0.30450439453125;1;43;8.41435045003891E-08;-1.87984108924866E-07;100 nA
-0.307464599609375;7.16175998191829;-1.08367919921875E-07;-0.3070068359375;1;44;8.41435045003891E-08;-1.87984108924866E-07;100 nA
-0.309906005859375;7.18617398185665;-1.0015869140625E-07;-0.309417724609375;1;45;8.41435045003891E-08;-1.87984108924866E-07;100 nA
-0.312347412109375;7.21058798179502;-9.1552734375E-08;-0.311920166015625;1;46;8.41435045003891E-08;-1.87984108924866E-07;100 nA
-0.314788818359375;7.23500198173338;-8.50830078125E-08;-0.314361572265625;1;47;8.41435045003891E-08;-1.87984108924866E-07;100 nA
-0.317230224609375;7.25941598167174;-7.82470703125E-08;-0.31683349609375;1;48;8.41435045003891E-08;-1.87984108924866E-07;100 nA
-0.319671630859375;7.2838299816101;-7.293701171875E-08;-0.3192138671875;1;49;8.41435045003891E-08;-1.87984108924866E-07;100 nA
-0.322113037109375;7.30824398154846;-6.817626953125E-08;-0.321746826171875;1;50;8.41435045003891E-08;-1.87984108924866E-07;100 nA
-0.324554443359375;7.33265798148682;-6.4788818359375E-08;-0.32415771484375;1;51;8.41435045003891E-08;-1.87984108924866E-07;100 nA
-0.326995849609375;7.35707198142518;-6.16455078125E-08;-0.326629638671875;1;52;8.41435045003891E-08;-1.87984108924866E-07;100 nA
-0.329437255859375;7.38148598136354;-5.9661865234375E-08;-0.329071044921875;1;53;8.41435045003891E-08;-1.87984108924866E-07;100 nA
-0.331878662109375;7.4058999813019;-5.77392578125E-08;-0.331512451171875;1;54;8.41435045003891E-08;-1.87984108924866E-07;100 nA
-0.334320068359375;7.43031398124026;-5.6427001953125E-08;-0.334014892578125;1;55;8.41435045003891E-08;-1.87984108924866E-07;100 nA
-0.336761474609375;7.45472798117862;-5.523681640625E-08;-0.336395263671875;1;56;8.41435045003891E-08;-1.87984108924866E-07;100 nA
-0.339202880859375;7.47914198111698;-5.4443359375E-08;-0.33880615234375;1;57;8.41435045003891E-08;-1.87984108924866E-07;100 nA
-0.341644287109375;7.50355598105534;-5.438232421875E-08;-0.34130859375;1;58;8.41435045003891E-08;-1.87984108924866E-07;100 nA
-0.344085693359375;7.5279699809937;-5.401611328125E-08;-0.343719482421875;1;59;8.41435045003891E-08;-1.87984108924866E-07;100 nA
-0.346527099609375;7.55238398093206;-5.37109375E-08;-0.346099853515625;1;60;8.41435045003891E-08;-1.87984108924866E-07;100 nA
-0.348968505859375;7.57679798087042;-5.3741455078125E-08;-0.3486328125;1;61;8.41435045003891E-08;-1.87984108924866E-07;100 nA
-0.351409912109375;7.60121198080878;-5.4229736328125E-08;-0.35101318359375;1;62;8.41435045003891E-08;-1.87984108924866E-07;100 nA
-0.353851318359375;7.62562598074715;-5.438232421875E-08;-0.353485107421875;1;63;8.41435045003891E-08;-1.87984108924866E-07;100 nA
-0.356292724609375;7.65003998068551;-5.4473876953125E-08;-0.35589599609375;1;64;8.41435045003891E-08;-1.87984108924866E-07;100 nA
-0.358734130859375;7.67445398062387;-5.499267578125E-08;-0.358367919921875;1;65;8.41435045003891E-08;-1.87984108924866E-07;100 nA
-0.361175537109375;7.69886798056223;-5.572509765625E-08;-0.36083984375;1;66;8.41435045003891E-08;-1.87984108924866E-07;100 nA
-0.363616943359375;7.72328198050059;-5.56640625E-08;-0.36322021484375;1;67;8.41435045003891E-08;-1.87984108924866E-07;100 nA
-0.366058349609375;7.74769598043895;-5.645751953125E-08;-0.365692138671875;1;68;8.41435045003891E-08;-1.87984108924866E-07;100 nA
-0.368499755859375;7.77210998037731;-5.7037353515625E-08;-0.368133544921875;1;69;8.41435045003891E-08;-1.87984108924866E-07;100 nA
-0.370941162109375;7.79652398031567;-5.767822265625E-08;-0.370513916015625;1;70;8.41435045003891E-08;-1.87984108924866E-07;100 nA
-0.373382568359375;7.82093798025403;-5.810546875E-08;-0.373016357421875;1;71;8.41435045003891E-08;-1.87984108924866E-07;100 nA
-0.375823974609375;7.84535198019239;-5.914306640625E-08;-0.37548828125;1;72;8.41435045003891E-08;-1.87984108924866E-07;100 nA
-0.378265380859375;7.86976598013075;-5.9814453125E-08;-0.37786865234375;1;73;8.41435045003891E-08;-1.87984108924866E-07;100 nA
-0.380706787109375;7.89417998006911;-6.060791015625E-08;-0.38031005859375;1;74;8.41435045003891E-08;-1.87984108924866E-07;100 nA
-0.383148193359375;7.91859398000747;-6.0943603515625E-08;-0.382720947265625;1;75;8.41435045003891E-08;-1.87984108924866E-07;100 nA
-0.385589599609375;7.94300797994583;-6.21337890625E-08;-0.38519287109375;1;76;8.41435045003891E-08;-1.87984108924866E-07;100 nA
-0.388031005859375;7.96742197988419;-6.2591552734375E-08;-0.387664794921875;1;77;8.41435045003891E-08;-1.87984108924866E-07;100 nA
-0.390472412109375;7.99183597982255;-6.3629150390625E-08;-0.39007568359375;1;78;8.41435045003891E-08;-1.87984108924866E-07;100 nA
-0.392913818359375;8.01624997976091;-6.4849853515625E-08;-0.392547607421875;1;79;8.41435045003891E-08;-1.87984108924866E-07;100 nA
-0.395355224609375;8.04066397969927;-6.536865234375E-08;-0.394927978515625;1;80;8.41435045003891E-08;-1.87984108924866E-07;100 nA
-0.397796630859375;8.06507797963764;-6.6253662109375E-08;-0.397369384765625;1;81;8.41435045003891E-08;-1.87984108924866E-07;100 nA
-0.400238037109375;8.089491979576;-6.7352294921875E-08;-0.399810791015625;1;82;8.41435045003891E-08;-1.87984108924866E-07;100 nA
-0.397796630859375;8.11390597951436;-6.2042236328125E-08;-0.397308349609375;1;83;8.41435045003891E-08;-1.87984108924866E-07;100 nA
-0.395355224609375;8.13831997945272;-5.908203125E-08;-0.394927978515625;1;84;8.41435045003891E-08;-1.87984108924866E-07;100 nA
-0.392913818359375;8.16273397939108;-5.62744140625E-08;-0.39251708984375;1;85;8.41435045003891E-08;-1.87984108924866E-07;100 nA
-0.390472412109375;8.18714797932944;-5.3466796875E-08;-0.390045166015625;1;86;8.41435045003891E-08;-1.87984108924866E-07;100 nA
-0.388031005859375;8.2115619792678;-5.17578125E-08;-0.387664794921875;1;87;8.41435045003891E-08;-1.87984108924866E-07;100 nA
-0.385589599609375;8.23597597920616;-4.99267578125E-08;-0.38519287109375;1;88;8.41435045003891E-08;-1.87984108924866E-07;100 nA
-0.383148193359375;8.26038997914452;-4.8126220703125E-08;-0.382781982421875;1;89;8.41435045003891E-08;-1.87984108924866E-07;100 nA
-0.380706787109375;8.28480397908288;-4.62646484375E-08;-0.380279541015625;1;90;8.41435045003891E-08;-1.87984108924866E-07;100 nA
-0.378265380859375;8.30921797902124;-4.5013427734375E-08;-0.377838134765625;1;91;8.41435045003891E-08;-1.87984108924866E-07;100 nA
-0.375823974609375;8.3336319789596;-4.345703125E-08;-0.375457763671875;1;92;8.41435045003891E-08;-1.87984108924866E-07;100 nA
-0.373382568359375;8.35804597889796;-4.2144775390625E-08;-0.373016357421875;1;93;8.41435045003891E-08;-1.87984108924866E-07;100 nA
-0.370941162109375;8.38245997883632;-4.0679931640625E-08;-0.370574951171875;1;94;8.41435045003891E-08;-1.87984108924866E-07;100 nA
-0.368499755859375;8.40687397877468;-3.9398193359375E-08;-0.36810302734375;1;95;8.41435045003891E-08;-1.87984108924866E-07;100 nA
-0.366058349609375;8.43128797871304;-3.8555908203125E-08;-0.36566162109375;1;96;8.41435045003891E-08;-1.87984108924866E-07;100 nA
-0.363616943359375;8.4557019786514;-3.726806640625E-08;-0.363189697265625;1;97;8.41435045003891E-08;-1.87984108924866E-07;100 nA
-0.361175537109375;8.48011597858977;-3.61328125E-08;-0.36077880859375;1;98;8.41435045003891E-08;-1.87984108924866E-07;100 nA
-0.358734130859375;8.50452997852813;-3.507080078125E-08;-0.3583984375;1;99;8.41435045003891E-08;-1.87984108924866E-07;100 nA
-0.356292724609375;8.52894397846649;-3.4130859375E-08;-0.355926513671875;1;100;8.41435045003891E-08;-1.87984108924866E-07;100 nA
-0.353851318359375;8.55335797840485;-3.26507568359375E-08;-0.35345458984375;1;101;8.41435045003891E-08;-1.87984108924866E-07;100 nA
-0.351409912109375;8.57777197834321;-3.16253662109375E-08;-0.35107421875;1;102;8.41435045003891E-08;-1.87984108924866E-07;100 nA
-0.348968505859375;8.60218597828157;-3.04107666015625E-08;-0.348602294921875;1;103;8.41435045003891E-08;-1.87984108924866E-07;100 nA
-0.346527099609375;8.62659997821993;-2.9327392578125E-08;-0.34613037109375;1;104;8.41435045003891E-08;-1.87984108924866E-07;100 nA
-0.344085693359375;8.65101397815829;-2.82501220703125E-08;-0.343719482421875;1;105;8.41435045003891E-08;-1.87984108924866E-07;100 nA
-0.341644287109375;8.67542797809665;-2.65716552734375E-08;-0.34130859375;1;106;8.41435045003891E-08;-1.87984108924866E-07;100 nA
-0.339202880859375;8.69984197803501;-2.5311279296875E-08;-0.338836669921875;1;107;8.41435045003891E-08;-1.87984108924866E-07;100 nA
-0.336761474609375;8.72425597797337;-2.32147216796875E-08;-0.33642578125;1;108;8.41435045003891E-08;-1.87984108924866E-07;100 nA
-0.334320068359375;8.74866997791173;-2.15484619140625E-08;-0.334014892578125;1;109;8.41435045003891E-08;-1.87984108924866E-07;100 nA
-0.331878662109375;8.77308397785009;-1.9134521484375E-08;-0.331512451171875;1;110;8.41435045003891E-08;-1.87984108924866E-07;100 nA
-0.329437255859375;8.79749797778845;-1.63116455078125E-08;-0.329132080078125;1;111;8.41435045003891E-08;-1.87984108924866E-07;100 nA
-0.326995849609375;8.82191197772681;-1.35894775390625E-08;-0.32666015625;1;112;8.41435045003891E-08;-1.87984108924866E-07;100 nA
-0.324554443359375;8.84632597766517;-1.00067138671875E-08;-0.32421875;1;113;8.41435045003891E-08;-1.87984108924866E-07;100 nA
-0.322113037109375;8.87073997760353;-5.5023193359375E-09;-0.321807861328125;1;114;8.41435045003891E-08;-1.87984108924866E-07;100 nA
-0.319671630859375;8.8951539775419;-3.082275390625E-10;-0.319427490234375;1;115;8.41435045003891E-08;-1.87984108924866E-07;100 nA
-0.317230224609375;8.91956797748026;5.5419921875E-09;-0.316925048828125;1;116;8.41435045003891E-08;-1.87984108924866E-07;100 nA
-0.314788818359375;8.94398197741862;1.25030517578125E-08;-0.3145751953125;1;117;8.41435045003891E-08;-1.87984108924866E-07;100 nA
-0.312347412109375;8.96839597735698;2.00927734375E-08;-0.31201171875;1;118;8.41435045003891E-08;-1.87984108924866E-07;100 nA
-0.309906005859375;8.99280997729534;2.8466796875E-08;-0.309600830078125;1;119;8.41435045003891E-08;-1.87984108924866E-07;100 nA
-0.307464599609375;9.0172239772337;3.7628173828125E-08;-0.307281494140625;1;120;8.41435045003891E-08;-1.87984108924866E-07;100 nA
-0.305023193359375;9.04163797717206;4.693603515625E-08;-0.30474853515625;1;121;8.41435045003891E-08;-1.87984108924866E-07;100 nA
-0.302581787109375;9.06605197711042;5.6915283203125E-08;-0.30242919921875;1;122;8.41435045003891E-08;-1.87984108924866E-07;100 nA
-0.300140380859375;9.09046597704878;6.65283203125E-08;-0.29998779296875;1;123;8.41435045003891E-08;-1.87984108924866E-07;100 nA
-0.297698974609375;9.11487997698714;7.6385498046875E-08;-0.29754638671875;1;124;8.41435045003891E-08;-1.87984108924866E-07;100 nA
-0.295257568359375;9.1392939769255;8.575439453125E-08;-0.295166015625;1;125;8.41435045003891E-08;-1.87984108924866E-07;100 nA
-0.292816162109375;9.16370797686386;9.429931640625E-08;-0.292694091796875;1;126;8.41435045003891E-08;-1.87984108924866E-07;100 nA
-0.290374755859375;9.18812197680222;1.02325439453125E-07;-0.290283203125;1;127;8.41435045003891E-08;-1.87984108924866E-07;100 nA
-0.287933349609375;9.21253597674058;1.07879638671875E-07;-0.287841796875;1;128;8.41435045003891E-08;-1.87984108924866E-07;100 nA
-0.285491943359375;9.23694997667894;1.1334228515625E-07;-0.285400390625;1;129;8.41435045003891E-08;-1.87984108924866E-07;100 nA
-0.283050537109375;9.2613639766173;1.1639404296875E-07;-0.282958984375;1;130;8.41435045003891E-08;-1.87984108924866E-07;100 nA
-0.280609130859375;9.28577797655566;1.1920166015625E-07;-0.280548095703125;1;131;8.41435045003891E-08;-1.87984108924866E-07;100 nA
-0.278167724609375;9.31019197649402;1.19873046875E-07;-0.278106689453125;1;132;8.41435045003891E-08;-1.87984108924866E-07;100 nA
-0.275726318359375;9.33460597643239;1.192626953125E-07;-0.27569580078125;1;133;8.41435045003891E-08;-1.87984108924866E-07;100 nA
-0.273284912109375;9.35901997637075;1.16455078125E-07;-0.27325439453125;1;134;8.41435045003891E-08;-1.87984108924866E-07;100 nA
-0.270843505859375;9.38343397630911;1.14227294921875E-07;-0.27081298828125;1;135;8.41435045003891E-08;-1.87984108924866E-07;100 nA
-0.268402099609375;9.40784797624747;1.09771728515625E-07;-0.268341064453125;1;136;8.41435045003891E-08;-1.87984108924866E-07;100 nA
-0.265960693359375;9.43226197618583;1.05133056640625E-07;-0.265899658203125;1;137;8.41435045003891E-08;-1.87984108924866E-07;100 nA
-0.263519287109375;9.45667597612419;9.930419921875E-08;-0.26348876953125;1;138;8.41435045003891E-08;-1.87984108924866E-07;100 nA
-0.261077880859375;9.48108997606255;9.3231201171875E-08;-0.26092529296875;1;139;8.41435045003891E-08;-1.87984108924866E-07;100 nA
-0.258636474609375;9.50550397600091;8.673095703125E-08;-0.258544921875;1;140;8.41435045003891E-08;-1.87984108924866E-07;100 nA
-0.256195068359375;9.52991797593927;7.9620361328125E-08;-0.256103515625;1;141;8.41435045003891E-08;-1.87984108924866E-07;100 nA
-0.253753662109375;9.55433197587763;7.2998046875E-08;-0.253631591796875;1;142;8.41435045003891E-08;-1.87984108924866E-07;100 nA
-0.251312255859375;9.57874597581599;6.707763671875E-08;-0.251190185546875;1;143;8.41435045003891E-08;-1.87984108924866E-07;100 nA
-0.248870849609375;9.60315997575435;6.0546875E-08;-0.248687744140625;1;144;8.41435045003891E-08;-1.87984108924866E-07;100 nA
-0.246429443359375;9.62757397569271;5.4840087890625E-08;-0.246307373046875;1;145;8.41435045003891E-08;-1.87984108924866E-07;100 nA
-0.243988037109375;9.65198797563107;4.9713134765625E-08;-0.243927001953125;1;146;8.41435045003891E-08;-1.87984108924866E-07;100 nA
-0.241546630859375;9.67640197556943;4.45556640625E-08;-0.24139404296875;1;147;8.41435045003891E-08;-1.87984108924866E-07;100 nA
-0.239105224609375;9.70081597550779;4.01611328125E-08;-0.238922119140625;1;148;8.41435045003891E-08;-1.87984108924866E-07;100 nA
-0.236663818359375;9.72522997544615;3.614501953125E-08;-0.2364501953125;1;149;8.41435045003891E-08;-1.87984108924866E-07;100 nA
-0.234222412109375;9.74964397538452;3.3001708984375E-08;-0.23406982421875;1;150;8.41435045003891E-08;-1.87984108924866E-07;100 nA
-0.231781005859375;9.77405797532288;3.0426025390625E-08;-0.2315673828125;1;151;8.41435045003891E-08;-1.87984108924866E-07;100 nA
-0.229339599609375;9.79847197526124;2.79205322265625E-08;-0.2291259765625;1;152;8.41435045003891E-08;-1.87984108924866E-07;100 nA
-0.226898193359375;9.8228859751996;2.55218505859375E-08;-0.2266845703125;1;153;8.41435045003891E-08;-1.87984108924866E-07;100 nA
-0.224456787109375;9.84729997513796;2.406005859375E-08;-0.224212646484375;1;154;8.41435045003891E-08;-1.87984108924866E-07;100 nA
-0.222015380859375;9.87171397507632;2.225341796875E-08;-0.2218017578125;1;155;8.41435045003891E-08;-1.87984108924866E-07;100 nA
-0.219573974609375;9.89612797501468;2.13623046875E-08;-0.219390869140625;1;156;8.41435045003891E-08;-1.87984108924866E-07;100 nA
-0.217132568359375;9.92054197495304;2.04986572265625E-08;-0.21685791015625;1;157;8.41435045003891E-08;-1.87984108924866E-07;100 nA
-0.214691162109375;9.9449559748914;2.00164794921875E-08;-0.214447021484375;1;158;8.41435045003891E-08;-1.87984108924866E-07;100 nA
-0.212249755859375;9.96936997482976;1.96807861328125E-08;-0.21197509765625;1;159;8.41435045003891E-08;-1.87984108924866E-07;100 nA
-0.209808349609375;9.99378397476812;1.93359375E-08;-0.209564208984375;1;160;8.41435045003891E-08;-1.87984108924866E-07;100 nA
-0.207366943359375;10.0181979747065;1.8988037109375E-08;-0.20721435546875;1;161;8.41435045003891E-08;-1.87984108924866E-07;100 nA
-0.204925537109375;10.0426119746448;1.91314697265625E-08;-0.2047119140625;1;162;8.41435045003891E-08;-1.87984108924866E-07;100 nA
-0.202484130859375;10.0670259745832;1.8927001953125E-08;-0.2022705078125;1;163;8.41435045003891E-08;-1.87984108924866E-07;100 nA
-0.200042724609375;10.0914399745216;1.91864013671875E-08;-0.199798583984375;1;164;8.41435045003891E-08;-1.87984108924866E-07;100 nA
-0.197601318359375;10.1158539744599;1.9232177734375E-08;-0.1973876953125;1;165;8.41435045003891E-08;-1.87984108924866E-07;100 nA
-0.195159912109375;10.1402679743983;1.94580078125E-08;-0.194976806640625;1;166;8.41435045003891E-08;-1.87984108924866E-07;100 nA
-0.192718505859375;10.1646819743366;1.97967529296875E-08;-0.192535400390625;1;167;8.41435045003891E-08;-1.87984108924866E-07;100 nA
-0.190277099609375;10.189095974275;1.99188232421875E-08;-0.190032958984375;1;168;8.41435045003891E-08;-1.87984108924866E-07;100 nA
-0.187835693359375;10.2135099742134;2.04925537109375E-08;-0.18768310546875;1;169;8.41435045003891E-08;-1.87984108924866E-07;100 nA
-0.185394287109375;10.2379239741517;2.1051025390625E-08;-0.185211181640625;1;170;8.41435045003891E-08;-1.87984108924866E-07;100 nA
-0.182952880859375;10.2623379740901;2.1649169921875E-08;-0.1827392578125;1;171;8.41435045003891E-08;-1.87984108924866E-07;100 nA
-0.180511474609375;10.2867519740284;2.181396484375E-08;-0.1802978515625;1;172;8.41435045003891E-08;-1.87984108924866E-07;100 nA
-0.178070068359375;10.3111659739668;2.227783203125E-08;-0.177886962890625;1;173;8.41435045003891E-08;-1.87984108924866E-07;100 nA
-0.175628662109375;10.3355799739052;2.27691650390625E-08;-0.1754150390625;1;174;8.41435045003891E-08;-1.87984108924866E-07;100 nA
-0.173187255859375;10.3599939738435;2.32269287109375E-08;-0.172943115234375;1;175;8.41435045003891E-08;-1.87984108924866E-07;100 nA
-0.170745849609375;10.3844079737819;2.38311767578125E-08;-0.170562744140625;1;176;8.41435045003891E-08;-1.87984108924866E-07;100 nA
-0.168304443359375;10.4088219737203;2.42706298828125E-08;-0.168121337890625;1;177;8.41435045003891E-08;-1.87984108924866E-07;100 nA
-0.165863037109375;10.4332359736586;2.4609375E-08;-0.165679931640625;1;178;8.41435045003891E-08;-1.87984108924866E-07;100 nA
-0.163421630859375;10.457649973597;2.52197265625E-08;-0.16326904296875;1;179;8.41435045003891E-08;-1.87984108924866E-07;100 nA
-0.160980224609375;10.4820639735353;2.542724609375E-08;-0.160797119140625;1;180;8.41435045003891E-08;-1.87984108924866E-07;100 nA
-0.158538818359375;10.5064779734737;2.5543212890625E-08;-0.158355712890625;1;181;8.41435045003891E-08;-1.87984108924866E-07;100 nA
-0.156097412109375;10.5308919734121;2.6898193359375E-08;-0.15594482421875;1;182;8.41435045003891E-08;-1.87984108924866E-07;100 nA
-0.153656005859375;10.5553059733504;2.67333984375E-08;-0.15350341796875;1;183;8.41435045003891E-08;-1.87984108924866E-07;100 nA
-0.151214599609375;10.5797199732888;2.72430419921875E-08;-0.151031494140625;1;184;8.41435045003891E-08;-1.87984108924866E-07;100 nA
-0.148773193359375;10.6041339732271;2.76641845703125E-08;-0.148681640625;1;185;8.41435045003891E-08;-1.87984108924866E-07;100 nA
-0.151214599609375;10.6285479731655;1.903076171875E-08;-0.1510009765625;1;186;8.41435045003891E-08;-1.87984108924866E-07;100 nA
-0.153656005859375;10.6529619731039;1.402587890625E-08;-0.153472900390625;1;187;8.41435045003891E-08;-1.87984108924866E-07;100 nA
-0.156097412109375;10.6773759730422;1.015625E-08;-0.15594482421875;1;188;8.41435045003891E-08;-1.87984108924866E-07;100 nA
-0.158538818359375;10.7017899729806;6.92138671875E-09;-0.1583251953125;1;189;8.41435045003891E-08;-1.87984108924866E-07;100 nA
-0.160980224609375;10.7262039729189;4.681396484375E-09;-0.160797119140625;1;190;8.41435045003891E-08;-1.87984108924866E-07;100 nA
-0.163421630859375;10.7506179728573;2.294921875E-09;-0.16326904296875;1;191;8.41435045003891E-08;-1.87984108924866E-07;100 nA
-0.165863037109375;10.7750319727957;1.28173828125E-10;-0.165618896484375;1;192;8.41435045003891E-08;-1.87984108924866E-07;100 nA
-0.168304443359375;10.799445972734;-1.7486572265625E-09;-0.1680908203125;1;193;8.41435045003891E-08;-1.87984108924866E-07;100 nA
-0.170745849609375;10.8238599726724;-3.4027099609375E-09;-0.1705322265625;1;194;8.41435045003891E-08;-1.87984108924866E-07;100 nA
-0.173187255859375;10.8482739726107;-4.693603515625E-09;-0.17291259765625;1;195;8.41435045003891E-08;-1.87984108924866E-07;100 nA
-0.175628662109375;10.8726879725491;-5.9234619140625E-09;-0.175384521484375;1;196;8.41435045003891E-08;-1.87984108924866E-07;100 nA
-0.178070068359375;10.8971019724875;-7.2723388671875E-09;-0.1778564453125;1;197;8.41435045003891E-08;-1.87984108924866E-07;100 nA
-0.180511474609375;10.9215159724258;-8.77685546875E-09;-0.180267333984375;1;198;8.41435045003891E-08;-1.87984108924866E-07;100 nA
-0.182952880859375;10.9459299723642;-9.8785400390625E-09;-0.182708740234375;1;199;8.41435045003891E-08;-1.87984108924866E-07;100 nA
-0.185394287109375;10.9703439723025;-1.09954833984375E-08;-0.185150146484375;1;200;8.41435045003891E-08;-1.87984108924866E-07;100 nA
-0.187835693359375;10.9947579722409;-1.24755859375E-08;-0.187530517578125;1;201;8.41435045003891E-08;-1.87984108924866E-07;100 nA
-0.190277099609375;11.0191719721793;-1.3763427734375E-08;-0.19000244140625;1;202;8.41435045003891E-08;-1.87984108924866E-07;100 nA
-0.192718505859375;11.0435859721176;-1.48529052734375E-08;-0.19244384765625;1;203;8.41435045003891E-08;-1.87984108924866E-07;100 nA
-0.195159912109375;11.067999972056;-1.5966796875E-08;-0.19488525390625;1;204;8.41435045003891E-08;-1.87984108924866E-07;100 nA
-0.197601318359375;11.0924139719943;-1.7279052734375E-08;-0.19732666015625;1;205;8.41435045003891E-08;-1.87984108924866E-07;100 nA
-0.200042724609375;11.1168279719327;-1.8450927734375E-08;-0.199737548828125;1;206;8.41435045003891E-08;-1.87984108924866E-07;100 nA
-0.202484130859375;11.1412419718711;-1.9610595703125E-08;-0.20220947265625;2;207;8.45947861671448E-08;-1.88141018152237E-07;100 nA
-0.204925537109375;11.1656559718094;-2.09075927734375E-08;-0.204681396484375;2;208;8.45947861671448E-08;-1.88141018152237E-07;100 nA
-0.207366943359375;11.1900699717478;-2.2332763671875E-08;-0.207061767578125;2;209;8.45947861671448E-08;-1.88141018152237E-07;100 nA
-0.209808349609375;11.2144839716862;-2.3486328125E-08;-0.20953369140625;2;210;8.45947861671448E-08;-1.88141018152237E-07;100 nA
-0.212249755859375;11.2388979716245;-2.52227783203125E-08;-0.2119140625;2;211;8.45947861671448E-08;-1.88141018152237E-07;100 nA
-0.214691162109375;11.2633119715629;-2.68707275390625E-08;-0.21441650390625;2;212;8.45947861671448E-08;-1.88141018152237E-07;100 nA
-0.217132568359375;11.2877259715012;-2.86163330078125E-08;-0.216827392578125;2;213;8.45947861671448E-08;-1.88141018152237E-07;100 nA
-0.219573974609375;11.3121399714396;-3.033447265625E-08;-0.21929931640625;2;214;8.45947861671448E-08;-1.88141018152237E-07;100 nA
-0.222015380859375;11.336553971378;-3.25469970703125E-08;-0.221649169921875;2;215;8.45947861671448E-08;-1.88141018152237E-07;100 nA
-0.224456787109375;11.3609679713163;-3.5211181640625E-08;-0.224151611328125;2;216;8.45947861671448E-08;-1.88141018152237E-07;100 nA
-0.226898193359375;11.3853819712547;-3.7646484375E-08;-0.2265625;2;217;8.45947861671448E-08;-1.88141018152237E-07;100 nA
-0.229339599609375;11.409795971193;-4.0435791015625E-08;-0.228973388671875;2;218;8.45947861671448E-08;-1.88141018152237E-07;100 nA
-0.231781005859375;11.4342099711314;-4.3701171875E-08;-0.2314453125;2;219;8.45947861671448E-08;-1.88141018152237E-07;100 nA
-0.234222412109375;11.4586239710698;-4.742431640625E-08;-0.233856201171875;2;220;8.45947861671448E-08;-1.88141018152237E-07;100 nA
-0.236663818359375;11.4830379710081;-5.1513671875E-08;-0.236297607421875;2;221;8.45947861671448E-08;-1.88141018152237E-07;100 nA
-0.239105224609375;11.5074519709465;-5.615234375E-08;-0.23883056640625;2;222;8.45947861671448E-08;-1.88141018152237E-07;100 nA
-0.241546630859375;11.5318659708848;-6.121826171875E-08;-0.2412109375;2;223;8.45947861671448E-08;-1.88141018152237E-07;100 nA
-0.243988037109375;11.5562799708232;-6.7230224609375E-08;-0.243621826171875;2;224;8.45947861671448E-08;-1.88141018152237E-07;100 nA
-0.246429443359375;11.5806939707616;-7.293701171875E-08;-0.246063232421875;2;225;8.45947861671448E-08;-1.88141018152237E-07;100 nA
-0.248870849609375;11.6051079706999;-7.958984375E-08;-0.24847412109375;2;226;8.45947861671448E-08;-1.88141018152237E-07;100 nA
-0.251312255859375;11.6295219706383;-8.69140625E-08;-0.250946044921875;2;227;8.45947861671448E-08;-1.88141018152237E-07;100 nA
-0.253753662109375;11.6539359705766;-9.4146728515625E-08;-0.253326416015625;2;228;8.45947861671448E-08;-1.88141018152237E-07;100 nA
-0.256195068359375;11.678349970515;-1.02508544921875E-07;-0.255767822265625;2;229;8.45947861671448E-08;-1.88141018152237E-07;100 nA
-0.258636474609375;11.7027639704534;-1.10809326171875E-07;-0.2581787109375;2;230;8.45947861671448E-08;-1.88141018152237E-07;100 nA
-0.261077880859375;11.7271779703917;-1.1920166015625E-07;-0.260589599609375;2;231;8.45947861671448E-08;-1.88141018152237E-07;100 nA
-0.263519287109375;11.7515919703301;-1.2744140625E-07;-0.26300048828125;2;232;8.45947861671448E-08;-1.88141018152237E-07;100 nA
-0.265960693359375;11.7760059702684;-1.35009765625E-07;-0.265411376953125;2;233;8.45947861671448E-08;-1.88141018152237E-07;100 nA
-0.268402099609375;11.8004199702068;-1.42913818359375E-07;-0.26788330078125;2;234;8.45947861671448E-08;-1.88141018152237E-07;100 nA
-0.270843505859375;11.8248339701452;-1.50299072265625E-07;-0.270263671875;2;235;8.45947861671448E-08;-1.88141018152237E-07;100 nA
-0.273284912109375;11.8492479700835;-1.5631103515625E-07;-0.27276611328125;2;236;8.45947861671448E-08;-1.88141018152237E-07;100 nA
-0.275726318359375;11.8736619700219;-1.60736083984375E-07;-0.27508544921875;2;237;8.45947861671448E-08;-1.88141018152237E-07;100 nA
-0.278167724609375;11.8980759699602;-1.64947509765625E-07;-0.277557373046875;2;238;8.45947861671448E-08;-1.88141018152237E-07;100 nA
-0.280609130859375;11.9224899698986;-1.676025390625E-07;-0.279998779296875;2;239;8.45947861671448E-08;-1.88141018152237E-07;100 nA
-0.283050537109375;11.946903969837;-1.68243408203125E-07;-0.28240966796875;2;240;8.45947861671448E-08;-1.88141018152237E-07;100 nA
-0.285491943359375;11.9713179697753;-1.67633056640625E-07;-0.284881591796875;2;241;8.45947861671448E-08;-1.88141018152237E-07;100 nA
-0.287933349609375;11.9957319697137;-1.65924072265625E-07;-0.28729248046875;2;242;8.45947861671448E-08;-1.88141018152237E-07;100 nA
-0.290374755859375;12.020145969652;-1.61773681640625E-07;-0.289764404296875;2;243;8.45947861671448E-08;-1.88141018152237E-07;100 nA
-0.292816162109375;12.0445599695904;-1.56829833984375E-07;-0.292266845703125;2;244;8.45947861671448E-08;-1.88141018152237E-07;100 nA
-0.295257568359375;12.0689739695288;-1.502685546875E-07;-0.294708251953125;2;245;8.45947861671448E-08;-1.88141018152237E-07;100 nA
-0.297698974609375;12.0933879694671;-1.42822265625E-07;-0.297088623046875;2;246;8.45947861671448E-08;-1.88141018152237E-07;100 nA
-0.300140380859375;12.1178019694055;-1.3372802734375E-07;-0.299591064453125;2;247;8.45947861671448E-08;-1.88141018152237E-07;100 nA
-0.302581787109375;12.1422159693439;-1.2481689453125E-07;-0.302093505859375;2;248;8.45947861671448E-08;-1.88141018152237E-07;100 nA
-0.305023193359375;12.1666299692822;-1.156005859375E-07;-0.30450439453125;2;249;8.45947861671448E-08;-1.88141018152237E-07;100 nA
-0.307464599609375;12.1910439692206;-1.064453125E-07;-0.3070068359375;2;250;8.45947861671448E-08;-1.88141018152237E-07;100 nA
-0.309906005859375;12.2154579691589;-9.7747802734375E-08;-0.309478759765625;2;251;8.45947861671448E-08;-1.88141018152237E-07;100 nA
-0.312347412109375;12.2398719690973;-8.9752197265625E-08;-0.311859130859375;2;252;8.45947861671448E-08;-1.88141018152237E-07;100 nA
-0.314788818359375;12.2642859690357;-8.2733154296875E-08;-0.314361572265625;2;253;8.45947861671448E-08;-1.88141018152237E-07;100 nA
-0.317230224609375;12.288699968974;-7.5897216796875E-08;-0.316864013671875;2;254;8.45947861671448E-08;-1.88141018152237E-07;100 nA
-0.319671630859375;12.3131139689124;-7.0281982421875E-08;-0.31927490234375;2;255;8.45947861671448E-08;-1.88141018152237E-07;100 nA
-0.322113037109375;12.3375279688507;-6.561279296875E-08;-0.321746826171875;2;256;8.45947861671448E-08;-1.88141018152237E-07;100 nA
-0.324554443359375;12.3619419687891;-6.207275390625E-08;-0.32421875;2;257;8.45947861671448E-08;-1.88141018152237E-07;100 nA
-0.326995849609375;12.3863559687275;-5.8990478515625E-08;-0.32666015625;2;258;8.45947861671448E-08;-1.88141018152237E-07;100 nA
-0.329437255859375;12.4107699686658;-5.67626953125E-08;-0.3291015625;2;259;8.45947861671448E-08;-1.88141018152237E-07;100 nA
-0.331878662109375;12.4351839686042;-5.50537109375E-08;-0.331512451171875;2;260;8.45947861671448E-08;-1.88141018152237E-07;100 nA
-0.334320068359375;12.4595979685425;-5.3375244140625E-08;-0.333984375;2;261;8.45947861671448E-08;-1.88141018152237E-07;100 nA
-0.336761474609375;12.4840119684809;-5.291748046875E-08;-0.33636474609375;2;262;8.45947861671448E-08;-1.88141018152237E-07;100 nA
-0.339202880859375;12.5084259684193;-5.2398681640625E-08;-0.338836669921875;2;263;8.45947861671448E-08;-1.88141018152237E-07;100 nA
-0.341644287109375;12.5328399683576;-5.1910400390625E-08;-0.341278076171875;2;264;8.45947861671448E-08;-1.88141018152237E-07;100 nA
-0.344085693359375;12.557253968296;-5.2001953125E-08;-0.343719482421875;2;265;8.45947861671448E-08;-1.88141018152237E-07;100 nA
-0.346527099609375;12.5816679682343;-5.1788330078125E-08;-0.34613037109375;2;266;8.45947861671448E-08;-1.88141018152237E-07;100 nA
-0.348968505859375;12.6060819681727;-5.1849365234375E-08;-0.348602294921875;2;267;8.45947861671448E-08;-1.88141018152237E-07;100 nA
-0.351409912109375;12.6304959681111;-5.2398681640625E-08;-0.35107421875;2;268;8.45947861671448E-08;-1.88141018152237E-07;100 nA
-0.353851318359375;12.6549099680494;-5.2642822265625E-08;-0.35345458984375;2;269;8.45947861671448E-08;-1.88141018152237E-07;100 nA
-0.356292724609375;12.6793239679878;-5.303955078125E-08;-0.35589599609375;2;270;8.45947861671448E-08;-1.88141018152237E-07;100 nA
-0.358734130859375;12.7037379679261;-5.3466796875E-08;-0.358306884765625;2;271;8.45947861671448E-08;-1.88141018152237E-07;100 nA
-0.361175537109375;12.7281519678645;-5.4046630859375E-08;-0.36077880859375;2;272;8.45947861671448E-08;-1.88141018152237E-07;100 nA
-0.363616943359375;12.7525659678029;-5.438232421875E-08;-0.36322021484375;2;273;8.45947861671448E-08;-1.88141018152237E-07;100 nA
-0.366058349609375;12.7769799677412;-5.4962158203125E-08;-0.36566162109375;2;274;8.45947861671448E-08;-1.88141018152237E-07;100 nA
-0.368499755859375;12.8013939676796;-5.5938720703125E-08;-0.368133544921875;2;275;8.45947861671448E-08;-1.88141018152237E-07;100 nA
-0.370941162109375;12.8258079676179;-5.615234375E-08;-0.370574951171875;2;276;8.45947861671448E-08;-1.88141018152237E-07;100 nA
-0.373382568359375;12.8502219675563;-5.7098388671875E-08;-0.37298583984375;2;277;8.45947861671448E-08;-1.88141018152237E-07;100 nA
-0.375823974609375;12.8746359674947;-5.7952880859375E-08;-0.375396728515625;2;278;8.45947861671448E-08;-1.88141018152237E-07;100 nA
-0.378265380859375;12.899049967433;-5.865478515625E-08;-0.377838134765625;2;279;8.45947861671448E-08;-1.88141018152237E-07;100 nA
-0.380706787109375;12.9234639673714;-5.9326171875E-08;-0.38031005859375;2;280;8.45947861671448E-08;-1.88141018152237E-07;100 nA
-0.383148193359375;12.9478779673098;-5.9967041015625E-08;-0.38275146484375;2;281;8.45947861671448E-08;-1.88141018152237E-07;100 nA
-0.385589599609375;12.9722919672481;-6.0882568359375E-08;-0.38519287109375;2;282;8.45947861671448E-08;-1.88141018152237E-07;100 nA
-0.388031005859375;12.9967059671865;-6.1767578125E-08;-0.387664794921875;2;283;8.45947861671448E-08;-1.88141018152237E-07;100 nA
-0.390472412109375;13.0211199671248;-6.292724609375E-08;-0.390045166015625;2;284;8.45947861671448E-08;-1.88141018152237E-07;100 nA
-0.392913818359375;13.0455339670632;-6.3568115234375E-08;-0.3924560546875;2;285;8.45947861671448E-08;-1.88141018152237E-07;100 nA
-0.395355224609375;13.0699479670016;-6.4605712890625E-08;-0.39495849609375;2;286;8.45947861671448E-08;-1.88141018152237E-07;100 nA
-0.397796630859375;13.0943619669399;-6.55517578125E-08;-0.3973388671875;2;287;8.45947861671448E-08;-1.88141018152237E-07;100 nA
-0.400238037109375;13.1187759668783;-6.622314453125E-08;-0.3997802734375;2;288;8.45947861671448E-08;-1.88141018152237E-07;100 nA
-0.397796630859375;13.1431899668166;-6.1767578125E-08;-0.39739990234375;2;289;8.45947861671448E-08;-1.88141018152237E-07;100 nA
-0.395355224609375;13.167603966755;-5.792236328125E-08;-0.39495849609375;2;290;8.45947861671448E-08;-1.88141018152237E-07;100 nA
-0.392913818359375;13.1920179666934;-5.548095703125E-08;-0.39251708984375;2;291;8.45947861671448E-08;-1.88141018152237E-07;100 nA
-0.390472412109375;13.2164319666317;-5.28564453125E-08;-0.390106201171875;2;292;8.45947861671448E-08;-1.88141018152237E-07;100 nA
-0.388031005859375;13.2408459665701;-5.1025390625E-08;-0.38763427734375;2;293;8.45947861671448E-08;-1.88141018152237E-07;100 nA
-0.385589599609375;13.2652599665084;-4.9346923828125E-08;-0.38519287109375;2;294;8.45947861671448E-08;-1.88141018152237E-07;100 nA
-0.383148193359375;13.2896739664468;-4.7088623046875E-08;-0.382781982421875;2;295;8.45947861671448E-08;-1.88141018152237E-07;100 nA
-0.380706787109375;13.3140879663852;-4.5623779296875E-08;-0.38037109375;2;296;8.45947861671448E-08;-1.88141018152237E-07;100 nA
-0.378265380859375;13.3385019663235;-4.4158935546875E-08;-0.37786865234375;2;297;8.45947861671448E-08;-1.88141018152237E-07;100 nA
-0.375823974609375;13.3629159662619;-4.254150390625E-08;-0.375396728515625;2;298;8.45947861671448E-08;-1.88141018152237E-07;100 nA
-0.373382568359375;13.3873299662002;-4.13818359375E-08;-0.372955322265625;2;299;8.45947861671448E-08;-1.88141018152237E-07;100 nA
-0.370941162109375;13.4117439661386;-4.04876708984375E-08;-0.370574951171875;2;300;8.45947861671448E-08;-1.88141018152237E-07;100 nA
-0.368499755859375;13.436157966077;-3.9215087890625E-08;-0.368072509765625;2;301;8.45947861671448E-08;-1.88141018152237E-07;100 nA
-0.366058349609375;13.4605719660153;-3.7982177734375E-08;-0.36566162109375;2;302;8.45947861671448E-08;-1.88141018152237E-07;100 nA
-0.363616943359375;13.4849859659537;-3.68072509765625E-08;-0.363250732421875;2;303;8.45947861671448E-08;-1.88141018152237E-07;100 nA
-0.361175537109375;13.509399965892;-3.590087890625E-08;-0.360809326171875;2;304;8.45947861671448E-08;-1.88141018152237E-07;100 nA
-0.358734130859375;13.5338139658304;-3.47686767578125E-08;-0.358367919921875;2;305;8.45947861671448E-08;-1.88141018152237E-07;100 nA
-0.356292724609375;13.5582279657688;-3.3746337890625E-08;-0.35589599609375;2;306;8.45947861671448E-08;-1.88141018152237E-07;100 nA
-0.353851318359375;13.5826419657071;-3.22235107421875E-08;-0.353424072265625;2;307;8.45947861671448E-08;-1.88141018152237E-07;100 nA
-0.351409912109375;13.6070559656455;-3.13446044921875E-08;-0.351104736328125;2;308;8.45947861671448E-08;-1.88141018152237E-07;100 nA
-0.348968505859375;13.6314699655838;-2.99072265625E-08;-0.3486328125;2;309;8.45947861671448E-08;-1.88141018152237E-07;100 nA
-0.346527099609375;13.6558839655222;-2.87384033203125E-08;-0.346099853515625;2;310;8.45947861671448E-08;-1.88141018152237E-07;100 nA
-0.344085693359375;13.6802979654606;-2.74658203125E-08;-0.343719482421875;2;311;8.45947861671448E-08;-1.88141018152237E-07;100 nA
-0.341644287109375;13.7047119653989;-2.613525390625E-08;-0.341278076171875;2;312;8.45947861671448E-08;-1.88141018152237E-07;100 nA
-0.339202880859375;13.7291259653373;-2.47283935546875E-08;-0.3388671875;2;313;8.45947861671448E-08;-1.88141018152237E-07;100 nA
-0.336761474609375;13.7535399652757;-2.32666015625E-08;-0.33642578125;2;314;8.45947861671448E-08;-1.88141018152237E-07;100 nA
-0.334320068359375;13.777953965214;-2.142333984375E-08;-0.333953857421875;2;315;8.45947861671448E-08;-1.88141018152237E-07;100 nA
-0.331878662109375;13.8023679651524;-1.8927001953125E-08;-0.331512451171875;2;316;8.45947861671448E-08;-1.88141018152237E-07;100 nA
-0.329437255859375;13.8267819650907;-1.6552734375E-08;-0.3291015625;2;317;8.45947861671448E-08;-1.88141018152237E-07;100 nA
-0.326995849609375;13.8511959650291;-1.35894775390625E-08;-0.32672119140625;2;318;8.45947861671448E-08;-1.88141018152237E-07;100 nA
-0.324554443359375;13.8756099649675;-9.539794921875E-09;-0.32427978515625;2;319;8.45947861671448E-08;-1.88141018152237E-07;100 nA
-0.322113037109375;13.9000239649058;-5.401611328125E-09;-0.32177734375;2;320;8.45947861671448E-08;-1.88141018152237E-07;100 nA
-0.319671630859375;13.9244379648442;-3.60107421875E-10;-0.319366455078125;2;321;8.45947861671448E-08;-1.88141018152237E-07;100 nA
-0.317230224609375;13.9488519647825;5.7098388671875E-09;-0.31695556640625;2;322;8.45947861671448E-08;-1.88141018152237E-07;100 nA
-0.314788818359375;13.9732659647209;1.2579345703125E-08;-0.314453125;2;323;8.45947861671448E-08;-1.88141018152237E-07;100 nA
-0.312347412109375;13.9976799646593;2.0489501953125E-08;-0.312042236328125;2;324;8.45947861671448E-08;-1.88141018152237E-07;100 nA
-0.309906005859375;14.0220939645976;2.838134765625E-08;-0.30963134765625;2;325;8.45947861671448E-08;-1.88141018152237E-07;100 nA
-0.307464599609375;14.046507964536;3.765869140625E-08;-0.3072509765625;2;326;8.45947861671448E-08;-1.88141018152237E-07;100 nA
-0.305023193359375;14.0709219644743;4.6875E-08;-0.3048095703125;2;327;8.45947861671448E-08;-1.88141018152237E-07;100 nA
-0.302581787109375;14.0953359644127;5.6976318359375E-08;-0.30242919921875;2;328;8.45947861671448E-08;-1.88141018152237E-07;100 nA
-0.300140380859375;14.1197499643511;6.6864013671875E-08;-0.299957275390625;2;329;8.45947861671448E-08;-1.88141018152237E-07;100 nA
-0.297698974609375;14.1441639642894;7.6568603515625E-08;-0.297515869140625;2;330;8.45947861671448E-08;-1.88141018152237E-07;100 nA
-0.295257568359375;14.1685779642278;8.6029052734375E-08;-0.295135498046875;2;331;8.45947861671448E-08;-1.88141018152237E-07;100 nA
-0.292816162109375;14.1929919641661;9.47265625E-08;-0.292694091796875;2;332;8.45947861671448E-08;-1.88141018152237E-07;100 nA
-0.290374755859375;14.2174059641045;1.0260009765625E-07;-0.290313720703125;2;333;8.45947861671448E-08;-1.88141018152237E-07;100 nA
-0.287933349609375;14.2418199640429;1.08306884765625E-07;-0.287872314453125;2;334;8.45947861671448E-08;-1.88141018152237E-07;100 nA
-0.285491943359375;14.2662339639812;1.14227294921875E-07;-0.285369873046875;2;335;8.45947861671448E-08;-1.88141018152237E-07;100 nA
-0.283050537109375;14.2906479639196;1.1749267578125E-07;-0.28302001953125;2;336;8.45947861671448E-08;-1.88141018152237E-07;100 nA
-0.280609130859375;14.3150619638579;1.1993408203125E-07;-0.280548095703125;2;337;8.45947861671448E-08;-1.88141018152237E-07;100 nA
-0.278167724609375;14.3394759637963;1.199951171875E-07;-0.27813720703125;2;338;8.45947861671448E-08;-1.88141018152237E-07;100 nA
-0.275726318359375;14.3638899637347;1.1993408203125E-07;-0.275634765625;2;339;8.45947861671448E-08;-1.88141018152237E-07;100 nA
-0.273284912109375;14.388303963673;1.175537109375E-07;-0.273223876953125;2;340;8.45947861671448E-08;-1.88141018152237E-07;100 nA
-0.270843505859375;14.4127179636114;1.1456298828125E-07;-0.270782470703125;2;341;8.45947861671448E-08;-1.88141018152237E-07;100 nA
-0.268402099609375;14.4371319635497;1.10443115234375E-07;-0.26837158203125;2;342;8.45947861671448E-08;-1.88141018152237E-07;100 nA
-0.265960693359375;14.4615459634881;1.0552978515625E-07;-0.26593017578125;2;343;8.45947861671448E-08;-1.88141018152237E-07;100 nA
-0.263519287109375;14.4859599634265;9.97314453125E-08;-0.263458251953125;2;344;8.45947861671448E-08;-1.88141018152237E-07;100 nA
-0.261077880859375;14.5103739633648;9.3292236328125E-08;-0.26104736328125;2;345;8.45947861671448E-08;-1.88141018152237E-07;100 nA
-0.258636474609375;14.5347879633032;8.67919921875E-08;-0.25860595703125;2;346;8.45947861671448E-08;-1.88141018152237E-07;100 nA
-0.256195068359375;14.5592019632415;8.013916015625E-08;-0.256072998046875;2;347;8.45947861671448E-08;-1.88141018152237E-07;100 nA
-0.253753662109375;14.5836159631799;7.3822021484375E-08;-0.253631591796875;2;348;8.45947861671448E-08;-1.88141018152237E-07;100 nA
-0.251312255859375;14.6080299631183;6.768798828125E-08;-0.25115966796875;2;349;8.45947861671448E-08;-1.88141018152237E-07;100 nA
-0.248870849609375;14.6324439630566;6.09130859375E-08;-0.248748779296875;2;350;8.45947861671448E-08;-1.88141018152237E-07;100 nA
-0.246429443359375;14.656857962995;5.535888671875E-08;-0.246307373046875;2;351;8.45947861671448E-08;-1.88141018152237E-07;100 nA
-0.243988037109375;14.6812719629334;4.9835205078125E-08;-0.243865966796875;2;352;8.45947861671448E-08;-1.88141018152237E-07;100 nA
-0.241546630859375;14.7056859628717;4.4769287109375E-08;-0.241363525390625;2;353;8.45947861671448E-08;-1.88141018152237E-07;100 nA
-0.239105224609375;14.7300999628101;4.034423828125E-08;-0.2388916015625;2;354;8.45947861671448E-08;-1.88141018152237E-07;100 nA
-0.236663818359375;14.7545139627484;3.6590576171875E-08;-0.236419677734375;2;355;8.45947861671448E-08;-1.88141018152237E-07;100 nA
-0.234222412109375;14.7789279626868;3.30291748046875E-08;-0.234039306640625;2;356;8.45947861671448E-08;-1.88141018152237E-07;100 nA
-0.231781005859375;14.8033419626252;3.05084228515625E-08;-0.2315673828125;2;357;8.45947861671448E-08;-1.88141018152237E-07;100 nA
-0.229339599609375;14.8277559625635;2.8118896484375E-08;-0.22906494140625;2;358;8.45947861671448E-08;-1.88141018152237E-07;100 nA
-0.226898193359375;14.8521699625019;2.58270263671875E-08;-0.226654052734375;2;359;8.45947861671448E-08;-1.88141018152237E-07;100 nA
-0.224456787109375;14.8765839624402;2.401123046875E-08;-0.224273681640625;2;360;8.45947861671448E-08;-1.88141018152237E-07;100 nA
-0.222015380859375;14.9009979623786;2.2906494140625E-08;-0.2218017578125;2;361;8.45947861671448E-08;-1.88141018152237E-07;100 nA
-0.219573974609375;14.925411962317;2.198486328125E-08;-0.2193603515625;2;362;8.45947861671448E-08;-1.88141018152237E-07;100 nA
-0.217132568359375;14.9498259622553;2.0733642578125E-08;-0.216949462890625;2;363;8.45947861671448E-08;-1.88141018152237E-07;100 nA
-0.214691162109375;14.9742399621937;1.99462890625E-08;-0.214447021484375;2;364;8.45947861671448E-08;-1.88141018152237E-07;100 nA
-0.212249755859375;14.998653962132;1.94305419921875E-08;-0.2120361328125;2;365;8.45947861671448E-08;-1.88141018152237E-07;100 nA
-0.209808349609375;15.0230679620704;1.96136474609375E-08;-0.2095947265625;2;366;8.45947861671448E-08;-1.88141018152237E-07;100 nA
-0.207366943359375;15.0474819620088;1.93328857421875E-08;-0.207122802734375;2;367;8.45947861671448E-08;-1.88141018152237E-07;100 nA
-0.204925537109375;15.0718959619471;1.944580078125E-08;-0.204681396484375;2;368;8.45947861671448E-08;-1.88141018152237E-07;100 nA
-0.202484130859375;15.0963099618855;1.8988037109375E-08;-0.2022705078125;2;369;8.45947861671448E-08;-1.88141018152237E-07;100 nA
-0.200042724609375;15.1207239618238;1.93328857421875E-08;-0.1998291015625;2;370;8.45947861671448E-08;-1.88141018152237E-07;100 nA
-0.197601318359375;15.1451379617622;1.944580078125E-08;-0.1973876953125;2;371;8.45947861671448E-08;-1.88141018152237E-07;100 nA
-0.195159912109375;15.1695519617006;1.97418212890625E-08;-0.194976806640625;2;372;8.45947861671448E-08;-1.88141018152237E-07;100 nA
-0.192718505859375;15.1939659616389;2.00286865234375E-08;-0.1925048828125;2;373;8.45947861671448E-08;-1.88141018152237E-07;100 nA
-0.190277099609375;15.2183799615773;2.05352783203125E-08;-0.190032958984375;2;374;8.45947861671448E-08;-1.88141018152237E-07;100 nA
-0.187835693359375;15.2427939615156;2.06390380859375E-08;-0.187652587890625;2;375;8.45947861671448E-08;-1.88141018152237E-07;100 nA
-0.185394287109375;15.267207961454;2.1063232421875E-08;-0.18524169921875;2;376;8.45947861671448E-08;-1.88141018152237E-07;100 nA
-0.182952880859375;15.2916219613924;2.161865234375E-08;-0.182708740234375;2;377;8.45947861671448E-08;-1.88141018152237E-07;100 nA
-0.180511474609375;15.3160359613307;2.20916748046875E-08;-0.180328369140625;2;378;8.45947861671448E-08;-1.88141018152237E-07;100 nA
-0.178070068359375;15.3404499612691;2.2003173828125E-08;-0.177886962890625;2;379;8.45947861671448E-08;-1.88141018152237E-07;100 nA
-0.175628662109375;15.3648639612074;2.314453125E-08;-0.175445556640625;2;380;8.45947861671448E-08;-1.88141018152237E-07;100 nA
-0.173187255859375;15.3892779611458;2.30072021484375E-08;-0.1729736328125;2;381;8.45947861671448E-08;-1.88141018152237E-07;100 nA
-0.170745849609375;15.4136919610842;2.37274169921875E-08;-0.17059326171875;2;382;8.45947861671448E-08;-1.88141018152237E-07;100 nA
-0.168304443359375;15.4381059610225;2.412109375E-08;-0.1680908203125;2;383;8.45947861671448E-08;-1.88141018152237E-07;100 nA
-0.165863037109375;15.4625199609609;2.479248046875E-08;-0.165679931640625;2;384;8.45947861671448E-08;-1.88141018152237E-07;100 nA
-0.163421630859375;15.4869339608993;2.54241943359375E-08;-0.16326904296875;2;385;8.45947861671448E-08;-1.88141018152237E-07;100 nA
-0.160980224609375;15.5113479608376;2.548828125E-08;-0.160858154296875;2;386;8.45947861671448E-08;-1.88141018152237E-07;100 nA
-0.158538818359375;15.535761960776;2.615966796875E-08;-0.158416748046875;2;387;8.45947861671448E-08;-1.88141018152237E-07;100 nA
-0.156097412109375;15.5601759607143;2.64923095703125E-08;-0.155914306640625;2;388;8.45947861671448E-08;-1.88141018152237E-07;100 nA
-0.153656005859375;15.5845899606527;2.7093505859375E-08;-0.153533935546875;2;389;8.45947861671448E-08;-1.88141018152237E-07;100 nA
-0.151214599609375;15.6090039605911;2.7423095703125E-08;-0.15106201171875;2;390;8.45947861671448E-08;-1.88141018152237E-07;100 nA
-0.148773193359375;15.6334179605294;2.7728271484375E-08;-0.14862060546875;2;391;8.45947861671448E-08;-1.88141018152237E-07;100 nA
-0.151214599609375;15.6578319604678;1.925048828125E-08;-0.1510009765625;2;392;8.45947861671448E-08;-1.88141018152237E-07;100 nA
-0.153656005859375;15.6822459604061;1.4007568359375E-08;-0.153472900390625;2;393;8.45947861671448E-08;-1.88141018152237E-07;100 nA
-0.156097412109375;15.7066599603445;1.0101318359375E-08;-0.15594482421875;2;394;8.45947861671448E-08;-1.88141018152237E-07;100 nA
-0.158538818359375;15.7310739602829;6.8023681640625E-09;-0.158355712890625;2;395;8.45947861671448E-08;-1.88141018152237E-07;100 nA
-0.160980224609375;15.7554879602212;4.7760009765625E-09;-0.160797119140625;2;396;8.45947861671448E-08;-1.88141018152237E-07;100 nA
-0.163421630859375;15.7799019601596;2.1942138671875E-09;-0.1632080078125;2;397;8.45947861671448E-08;-1.88141018152237E-07;100 nA
-0.165863037109375;15.8043159600979;1.77001953125E-10;-0.16571044921875;2;398;8.45947861671448E-08;-1.88141018152237E-07;100 nA
-0.168304443359375;15.8287299600363;-1.8035888671875E-09;-0.168060302734375;2;399;8.45947861671448E-08;-1.88141018152237E-07;100 nA
-0.170745849609375;15.8531439599747;-3.1829833984375E-09;-0.1705322265625;2;400;8.45947861671448E-08;-1.88141018152237E-07;100 nA
-0.173187255859375;15.877557959913;-4.6295166015625E-09;-0.17291259765625;2;401;8.45947861671448E-08;-1.88141018152237E-07;100 nA
-0.175628662109375;15.9019719598514;-6.0760498046875E-09;-0.175384521484375;2;402;8.45947861671448E-08;-1.88141018152237E-07;100 nA
-0.178070068359375;15.9263859597897;-7.611083984375E-09;-0.1778564453125;2;403;8.45947861671448E-08;-1.88141018152237E-07;100 nA
-0.180511474609375;15.9507999597281;-8.8531494140625E-09;-0.18023681640625;2;404;8.45947861671448E-08;-1.88141018152237E-07;100 nA
-0.182952880859375;15.9752139596665;-1.00921630859375E-08;-0.182708740234375;2;405;8.45947861671448E-08;-1.88141018152237E-07;100 nA
-0.185394287109375;15.9996279596048;-1.1322021484375E-08;-0.18511962890625;2;406;8.45947861671448E-08;-1.88141018152237E-07;100 nA
-0.187835693359375;16.0240419595432;-1.2310791015625E-08;-0.1876220703125;2;407;8.45947861671448E-08;-1.88141018152237E-07;100 nA
-0.190277099609375;16.0484559594815;-1.3555908203125E-08;-0.1900634765625;2;408;8.45947861671448E-08;-1.88141018152237E-07;100 nA
-0.192718505859375;16.0728699594199;-1.47125244140625E-08;-0.192474365234375;2;409;8.45947861671448E-08;-1.88141018152237E-07;100 nA
-0.195159912109375;16.0972839593583;-1.59881591796875E-08;-0.194854736328125;2;410;8.45947861671448E-08;-1.88141018152237E-07;100 nA
-0.197601318359375;16.1216979592966;-1.7254638671875E-08;-0.197296142578125;2;411;8.45947861671448E-08;-1.88141018152237E-07;100 nA
-0.200042724609375;16.146111959235;-1.85394287109375E-08;-0.19976806640625;2;412;8.45947861671448E-08;-1.88141018152237E-07;100 nA
